# f (Hz)        Re[Z] (Ohm/m)     Im[Z] (Ohm/m)
0.0000000e+00    1.6475600e+00    1.9279996e+07
1.0000000e+01    1.4929769e+06    1.8243647e+07
2.0000000e+01    2.0945814e+06    1.7543662e+07
3.0000000e+01    2.4338997e+06    1.7001279e+07
4.0000000e+01    2.7732180e+06    1.6458896e+07
5.0000000e+01    3.0576494e+06    1.5983799e+07
6.0000000e+01    3.2214460e+06    1.5652593e+07
7.0000000e+01    3.3025144e+06    1.5388999e+07
8.0000000e+01    3.3835828e+06    1.5125404e+07
9.0000000e+01    3.4646512e+06    1.4861810e+07
1.0000000e+02    3.5457196e+06    1.4598216e+07
1.1000000e+02    3.6267879e+06    1.4334621e+07
1.2000000e+02    3.7078563e+06    1.4071027e+07
1.3000000e+02    3.7889247e+06    1.3807432e+07
1.4000000e+02    3.8699931e+06    1.3543838e+07
1.5000000e+02    3.9483753e+06    1.3288199e+07
1.6000000e+02    3.9917372e+06    1.3131359e+07
1.7000000e+02    4.0339672e+06    1.2977607e+07
1.8000000e+02    4.0761972e+06    1.2823856e+07
1.9000000e+02    4.1184271e+06    1.2670104e+07
2.0000000e+02    4.1325234e+06    1.2554271e+07
2.1000000e+02    4.1372686e+06    1.2451041e+07
2.2000000e+02    4.1420138e+06    1.2347811e+07
2.3000000e+02    4.1467590e+06    1.2244581e+07
2.4000000e+02    4.1515042e+06    1.2141351e+07
2.5000000e+02    4.1562494e+06    1.2038121e+07
2.6000000e+02    4.1609946e+06    1.1934891e+07
2.7000000e+02    4.1657398e+06    1.1831661e+07
2.8000000e+02    4.1704850e+06    1.1728431e+07
2.9000000e+02    4.1752302e+06    1.1625201e+07
3.0000000e+02    4.1799754e+06    1.1521971e+07
3.1000000e+02    4.1847206e+06    1.1418741e+07
3.2000000e+02    4.1894658e+06    1.1315511e+07
3.3000000e+02    4.1942110e+06    1.1212281e+07
3.4000000e+02    4.1989562e+06    1.1109051e+07
3.5000000e+02    4.2037014e+06    1.1005821e+07
3.6000000e+02    4.2084466e+06    1.0902591e+07
3.7000000e+02    4.2131918e+06    1.0799361e+07
3.8000000e+02    4.2179370e+06    1.0696131e+07
3.9000000e+02    4.2226822e+06    1.0592901e+07
4.0000000e+02    4.2274274e+06    1.0489671e+07
4.1000000e+02    4.2321726e+06    1.0386441e+07
4.2000000e+02    4.2369178e+06    1.0283211e+07
4.3000000e+02    4.2416010e+06    1.0193358e+07
4.4000000e+02    4.2457340e+06    1.0131339e+07
4.5000000e+02    4.2498354e+06    1.0070520e+07
4.6000000e+02    4.2539367e+06    1.0009702e+07
4.7000000e+02    4.2580380e+06    9.9488830e+06
4.8000000e+02    4.2621393e+06    9.8880643e+06
4.9000000e+02    4.2662406e+06    9.8272456e+06
5.0000000e+02    4.2703419e+06    9.7664268e+06
5.1000000e+02    4.2744432e+06    9.7056081e+06
5.2000000e+02    4.2785445e+06    9.6447894e+06
5.3000000e+02    4.2826458e+06    9.5839707e+06
5.4000000e+02    4.2867471e+06    9.5231519e+06
5.5000000e+02    4.2908484e+06    9.4623332e+06
5.6000000e+02    4.2935112e+06    9.4053932e+06
5.7000000e+02    4.2874431e+06    9.3719940e+06
5.8000000e+02    4.2813749e+06    9.3385947e+06
5.9000000e+02    4.2753068e+06    9.3051955e+06
6.0000000e+02    4.2692387e+06    9.2717962e+06
6.1000000e+02    4.2631706e+06    9.2383969e+06
6.2000000e+02    4.2571025e+06    9.2049977e+06
6.3000000e+02    4.2510344e+06    9.1715984e+06
6.4000000e+02    4.2449663e+06    9.1381991e+06
6.5000000e+02    4.2388982e+06    9.1047999e+06
6.6000000e+02    4.2328301e+06    9.0714006e+06
6.7000000e+02    4.2267620e+06    9.0380013e+06
6.8000000e+02    4.2206939e+06    9.0046021e+06
6.9000000e+02    4.2146258e+06    8.9712028e+06
7.0000000e+02    4.2085577e+06    8.9378035e+06
7.1000000e+02    4.2024896e+06    8.9044043e+06
7.2000000e+02    4.1964215e+06    8.8710050e+06
7.3000000e+02    4.1903534e+06    8.8376057e+06
7.4000000e+02    4.1842853e+06    8.8042065e+06
7.5000000e+02    4.1782172e+06    8.7708072e+06
7.6000000e+02    4.1721491e+06    8.7374079e+06
7.7000000e+02    4.1660810e+06    8.7040087e+06
7.8000000e+02    4.1600129e+06    8.6706094e+06
7.9000000e+02    4.1539448e+06    8.6372101e+06
8.0000000e+02    4.1478767e+06    8.6038109e+06
8.1000000e+02    4.1418086e+06    8.5704116e+06
8.2000000e+02    4.1357405e+06    8.5370124e+06
8.3000000e+02    4.1296724e+06    8.5036131e+06
8.4000000e+02    4.1236043e+06    8.4702138e+06
8.5000000e+02    4.1175362e+06    8.4368146e+06
8.6000000e+02    4.1114681e+06    8.4034153e+06
8.7000000e+02    4.1054000e+06    8.3700160e+06
8.8000000e+02    4.0993319e+06    8.3366168e+06
8.9000000e+02    4.0932637e+06    8.3032175e+06
9.0000000e+02    4.0871956e+06    8.2698182e+06
9.1000000e+02    4.0811275e+06    8.2364190e+06
9.2000000e+02    4.0750594e+06    8.2030197e+06
9.3000000e+02    4.0689913e+06    8.1696204e+06
9.4000000e+02    4.0629232e+06    8.1362212e+06
9.5000000e+02    4.0568551e+06    8.1028219e+06
9.6000000e+02    4.0507870e+06    8.0694226e+06
9.7000000e+02    4.0447189e+06    8.0360234e+06
9.8000000e+02    4.0386508e+06    8.0026241e+06
9.9000000e+02    4.0325827e+06    7.9692248e+06
1.0000000e+03    4.0265146e+06    7.9358256e+06
1.0100000e+03    4.0204465e+06    7.9024263e+06
1.0200000e+03    4.0143784e+06    7.8690271e+06
1.0300000e+03    4.0083103e+06    7.8356278e+06
1.0400000e+03    4.0022422e+06    7.8022285e+06
1.0500000e+03    3.9961741e+06    7.7688293e+06
1.0600000e+03    3.9901060e+06    7.7354300e+06
1.0700000e+03    3.9840379e+06    7.7020307e+06
1.0800000e+03    3.9779698e+06    7.6686315e+06
1.0900000e+03    3.9719017e+06    7.6352322e+06
1.1000000e+03    3.9658336e+06    7.6018329e+06
1.1100000e+03    3.9597655e+06    7.5684337e+06
1.1200000e+03    3.9536974e+06    7.5350344e+06
1.1300000e+03    3.9476293e+06    7.5016351e+06
1.1400000e+03    3.9415612e+06    7.4682359e+06
1.1500000e+03    3.9354931e+06    7.4348366e+06
1.1600000e+03    3.9294250e+06    7.4014373e+06
1.1700000e+03    3.9233569e+06    7.3680381e+06
1.1800000e+03    3.9172888e+06    7.3346388e+06
1.1900000e+03    3.9112207e+06    7.3012395e+06
1.2000000e+03    3.9051525e+06    7.2678403e+06
1.2100000e+03    3.8993744e+06    7.2358307e+06
1.2200000e+03    3.8938243e+06    7.2049445e+06
1.2300000e+03    3.8888621e+06    7.1767523e+06
1.2400000e+03    3.8846849e+06    7.1521814e+06
1.2500000e+03    3.8809435e+06    7.1290189e+06
1.2600000e+03    3.8777793e+06    7.1075071e+06
1.2700000e+03    3.8748468e+06    7.0866637e+06
1.2800000e+03    3.8719142e+06    7.0658203e+06
1.2900000e+03    3.8689816e+06    7.0449770e+06
1.3000000e+03    3.8660491e+06    7.0241336e+06
1.3100000e+03    3.8631165e+06    7.0032902e+06
1.3200000e+03    3.8601839e+06    6.9824468e+06
1.3300000e+03    3.8572513e+06    6.9616034e+06
1.3400000e+03    3.8543188e+06    6.9407600e+06
1.3500000e+03    3.8513862e+06    6.9199166e+06
1.3600000e+03    3.8484536e+06    6.8990732e+06
1.3700000e+03    3.8455211e+06    6.8782299e+06
1.3800000e+03    3.8425885e+06    6.8573865e+06
1.3900000e+03    3.8396559e+06    6.8365431e+06
1.4000000e+03    3.8367233e+06    6.8156997e+06
1.4100000e+03    3.8337908e+06    6.7948563e+06
1.4200000e+03    3.8308582e+06    6.7740129e+06
1.4300000e+03    3.8279256e+06    6.7531695e+06
1.4400000e+03    3.8249930e+06    6.7323261e+06
1.4500000e+03    3.8220605e+06    6.7114828e+06
1.4600000e+03    3.8191279e+06    6.6906394e+06
1.4700000e+03    3.8161953e+06    6.6697960e+06
1.4800000e+03    3.8132628e+06    6.6489526e+06
1.4900000e+03    3.8103302e+06    6.6281092e+06
1.5000000e+03    3.8073976e+06    6.6072658e+06
1.5100000e+03    3.8044650e+06    6.5864224e+06
1.5200000e+03    3.8015325e+06    6.5655790e+06
1.5300000e+03    3.7985999e+06    6.5447356e+06
1.5400000e+03    3.7956673e+06    6.5238923e+06
1.5500000e+03    3.7927348e+06    6.5030489e+06
1.5600000e+03    3.7898022e+06    6.4822055e+06
1.5700000e+03    3.7868696e+06    6.4613621e+06
1.5800000e+03    3.7839370e+06    6.4405187e+06
1.5900000e+03    3.7810045e+06    6.4196753e+06
1.6000000e+03    3.7780719e+06    6.3988319e+06
1.6100000e+03    3.7751393e+06    6.3779885e+06
1.6200000e+03    3.7722068e+06    6.3571452e+06
1.6300000e+03    3.7683838e+06    6.3424732e+06
1.6400000e+03    3.7644700e+06    6.3284563e+06
1.6500000e+03    3.7605537e+06    6.3145163e+06
1.6600000e+03    3.7567727e+06    6.3034729e+06
1.6700000e+03    3.7530578e+06    6.2938449e+06
1.6800000e+03    3.7493430e+06    6.2842169e+06
1.6900000e+03    3.7456281e+06    6.2745889e+06
1.7000000e+03    3.7419133e+06    6.2649609e+06
1.7100000e+03    3.7381985e+06    6.2553329e+06
1.7200000e+03    3.7344836e+06    6.2457049e+06
1.7300000e+03    3.7307688e+06    6.2360769e+06
1.7400000e+03    3.7270539e+06    6.2264489e+06
1.7500000e+03    3.7233391e+06    6.2168209e+06
1.7600000e+03    3.7196242e+06    6.2071929e+06
1.7700000e+03    3.7159094e+06    6.1975649e+06
1.7800000e+03    3.7121945e+06    6.1879369e+06
1.7900000e+03    3.7084797e+06    6.1783089e+06
1.8000000e+03    3.7047649e+06    6.1686809e+06
1.8100000e+03    3.7010500e+06    6.1590529e+06
1.8200000e+03    3.6973352e+06    6.1494249e+06
1.8300000e+03    3.6936203e+06    6.1397969e+06
1.8400000e+03    3.6899055e+06    6.1301689e+06
1.8500000e+03    3.6861906e+06    6.1205409e+06
1.8600000e+03    3.6824758e+06    6.1109129e+06
1.8700000e+03    3.6787609e+06    6.1012849e+06
1.8800000e+03    3.6750461e+06    6.0916569e+06
1.8900000e+03    3.6713313e+06    6.0820289e+06
1.9000000e+03    3.6676164e+06    6.0724009e+06
1.9100000e+03    3.6639016e+06    6.0627729e+06
1.9200000e+03    3.6601867e+06    6.0531449e+06
1.9300000e+03    3.6564719e+06    6.0435169e+06
1.9400000e+03    3.6527570e+06    6.0338889e+06
1.9500000e+03    3.6490422e+06    6.0242609e+06
1.9600000e+03    3.6453273e+06    6.0146329e+06
1.9700000e+03    3.6416125e+06    6.0050049e+06
1.9800000e+03    3.6378977e+06    5.9953769e+06
1.9900000e+03    3.6341828e+06    5.9857489e+06
2.0000000e+03    3.6304680e+06    5.9761209e+06
2.0100000e+03    3.6267531e+06    5.9664929e+06
2.0200000e+03    3.6230383e+06    5.9568649e+06
2.0300000e+03    3.6193234e+06    5.9472369e+06
2.0400000e+03    3.6156086e+06    5.9376089e+06
2.0500000e+03    3.6118937e+06    5.9279809e+06
2.0600000e+03    3.6081789e+06    5.9183529e+06
2.0700000e+03    3.6044641e+06    5.9087249e+06
2.0800000e+03    3.6007492e+06    5.8990969e+06
2.0900000e+03    3.5970344e+06    5.8894689e+06
2.1000000e+03    3.5933195e+06    5.8798409e+06
2.1100000e+03    3.5896047e+06    5.8702129e+06
2.1200000e+03    3.5858898e+06    5.8605849e+06
2.1300000e+03    3.5821750e+06    5.8509569e+06
2.1400000e+03    3.5784601e+06    5.8413289e+06
2.1500000e+03    3.5747453e+06    5.8317009e+06
2.1600000e+03    3.5710305e+06    5.8220729e+06
2.1700000e+03    3.5673156e+06    5.8124449e+06
2.1800000e+03    3.5636008e+06    5.8028169e+06
2.1900000e+03    3.5598859e+06    5.7931889e+06
2.2000000e+03    3.5561711e+06    5.7835609e+06
2.2100000e+03    3.5524562e+06    5.7739329e+06
2.2200000e+03    3.5487414e+06    5.7643049e+06
2.2300000e+03    3.5450265e+06    5.7546769e+06
2.2400000e+03    3.5413117e+06    5.7450489e+06
2.2500000e+03    3.5375969e+06    5.7354209e+06
2.2600000e+03    3.5338820e+06    5.7257929e+06
2.2700000e+03    3.5301672e+06    5.7161649e+06
2.2800000e+03    3.5264523e+06    5.7065369e+06
2.2900000e+03    3.5227375e+06    5.6969089e+06
2.3000000e+03    3.5190226e+06    5.6872809e+06
2.3100000e+03    3.5153078e+06    5.6776529e+06
2.3200000e+03    3.5115929e+06    5.6680249e+06
2.3300000e+03    3.5078781e+06    5.6583969e+06
2.3400000e+03    3.5041633e+06    5.6487689e+06
2.3500000e+03    3.5004484e+06    5.6391409e+06
2.3600000e+03    3.4967336e+06    5.6295129e+06
2.3700000e+03    3.4930187e+06    5.6198849e+06
2.3800000e+03    3.4893039e+06    5.6102569e+06
2.3900000e+03    3.4855890e+06    5.6006289e+06
2.4000000e+03    3.4818742e+06    5.5910009e+06
2.4100000e+03    3.4781594e+06    5.5813729e+06
2.4200000e+03    3.4744445e+06    5.5717449e+06
2.4300000e+03    3.4707297e+06    5.5621169e+06
2.4400000e+03    3.4670148e+06    5.5524889e+06
2.4500000e+03    3.4633000e+06    5.5428609e+06
2.4600000e+03    3.4595851e+06    5.5332330e+06
2.4700000e+03    3.4558703e+06    5.5236050e+06
2.4800000e+03    3.4521554e+06    5.5139770e+06
2.4900000e+03    3.4484406e+06    5.5043490e+06
2.5000000e+03    3.4447258e+06    5.4947210e+06
2.5100000e+03    3.4410109e+06    5.4850930e+06
2.5200000e+03    3.4372961e+06    5.4754650e+06
2.5300000e+03    3.4335812e+06    5.4658370e+06
2.5400000e+03    3.4298664e+06    5.4562090e+06
2.5500000e+03    3.4261515e+06    5.4465810e+06
2.5600000e+03    3.4224367e+06    5.4369530e+06
2.5700000e+03    3.4187218e+06    5.4273250e+06
2.5800000e+03    3.4150070e+06    5.4176970e+06
2.5900000e+03    3.4112922e+06    5.4080690e+06
2.6000000e+03    3.4075773e+06    5.3984410e+06
2.6100000e+03    3.4038625e+06    5.3888130e+06
2.6200000e+03    3.4001476e+06    5.3791850e+06
2.6300000e+03    3.3964328e+06    5.3695570e+06
2.6400000e+03    3.3927179e+06    5.3599290e+06
2.6500000e+03    3.3890031e+06    5.3503010e+06
2.6600000e+03    3.3852882e+06    5.3406730e+06
2.6700000e+03    3.3815734e+06    5.3310450e+06
2.6800000e+03    3.3778586e+06    5.3214170e+06
2.6900000e+03    3.3741437e+06    5.3117890e+06
2.7000000e+03    3.3704289e+06    5.3021610e+06
2.7100000e+03    3.3667140e+06    5.2925330e+06
2.7200000e+03    3.3629992e+06    5.2829050e+06
2.7300000e+03    3.3592843e+06    5.2732770e+06
2.7400000e+03    3.3555695e+06    5.2636490e+06
2.7500000e+03    3.3518546e+06    5.2540210e+06
2.7600000e+03    3.3481398e+06    5.2443930e+06
2.7700000e+03    3.3444250e+06    5.2347650e+06
2.7800000e+03    3.3407101e+06    5.2251370e+06
2.7900000e+03    3.3369953e+06    5.2155090e+06
2.8000000e+03    3.3332804e+06    5.2058810e+06
2.8100000e+03    3.3295656e+06    5.1962530e+06
2.8200000e+03    3.3258507e+06    5.1866250e+06
2.8300000e+03    3.3221359e+06    5.1769970e+06
2.8400000e+03    3.3184210e+06    5.1673690e+06
2.8500000e+03    3.3147062e+06    5.1577410e+06
2.8600000e+03    3.3109914e+06    5.1481130e+06
2.8700000e+03    3.3072765e+06    5.1384850e+06
2.8800000e+03    3.3035617e+06    5.1288570e+06
2.8900000e+03    3.2998468e+06    5.1192290e+06
2.9000000e+03    3.2961320e+06    5.1096010e+06
2.9100000e+03    3.2924171e+06    5.0999730e+06
2.9200000e+03    3.2887023e+06    5.0903450e+06
2.9300000e+03    3.2849874e+06    5.0807170e+06
2.9400000e+03    3.2812726e+06    5.0710890e+06
2.9500000e+03    3.2775578e+06    5.0614610e+06
2.9600000e+03    3.2738429e+06    5.0518330e+06
2.9700000e+03    3.2701281e+06    5.0422050e+06
2.9800000e+03    3.2664132e+06    5.0325770e+06
2.9900000e+03    3.2626984e+06    5.0229490e+06
3.0000000e+03    3.2589835e+06    5.0133210e+06
3.0100000e+03    3.2552687e+06    5.0036930e+06
3.0200000e+03    3.2515538e+06    4.9940650e+06
3.0300000e+03    3.2478390e+06    4.9844370e+06
3.0400000e+03    3.2441242e+06    4.9748090e+06
3.0500000e+03    3.2404093e+06    4.9651810e+06
3.0600000e+03    3.2368959e+06    4.9559761e+06
3.0700000e+03    3.2335293e+06    4.9470794e+06
3.0800000e+03    3.2301627e+06    4.9381827e+06
3.0900000e+03    3.2267960e+06    4.9292859e+06
3.1000000e+03    3.2237142e+06    4.9209991e+06
3.1100000e+03    3.2207212e+06    4.9129025e+06
3.1200000e+03    3.2178850e+06    4.9051457e+06
3.1300000e+03    3.2152907e+06    4.8979136e+06
3.1400000e+03    3.2130007e+06    4.8913465e+06
3.1500000e+03    3.2107971e+06    4.8849684e+06
3.1600000e+03    3.2085934e+06    4.8785902e+06
3.1700000e+03    3.2063898e+06    4.8722121e+06
3.1800000e+03    3.2041861e+06    4.8658339e+06
3.1900000e+03    3.2019825e+06    4.8594557e+06
3.2000000e+03    3.1997788e+06    4.8530776e+06
3.2100000e+03    3.1975752e+06    4.8466994e+06
3.2200000e+03    3.1953716e+06    4.8403213e+06
3.2300000e+03    3.1931679e+06    4.8339431e+06
3.2400000e+03    3.1909643e+06    4.8275649e+06
3.2500000e+03    3.1887606e+06    4.8211868e+06
3.2600000e+03    3.1865570e+06    4.8148086e+06
3.2700000e+03    3.1843533e+06    4.8084305e+06
3.2800000e+03    3.1821497e+06    4.8020523e+06
3.2900000e+03    3.1799461e+06    4.7956741e+06
3.3000000e+03    3.1777424e+06    4.7892960e+06
3.3100000e+03    3.1755388e+06    4.7829178e+06
3.3200000e+03    3.1733351e+06    4.7765397e+06
3.3300000e+03    3.1711315e+06    4.7701615e+06
3.3400000e+03    3.1689278e+06    4.7637833e+06
3.3500000e+03    3.1667242e+06    4.7574052e+06
3.3600000e+03    3.1645206e+06    4.7510270e+06
3.3700000e+03    3.1623169e+06    4.7446489e+06
3.3800000e+03    3.1601133e+06    4.7382707e+06
3.3900000e+03    3.1579096e+06    4.7318925e+06
3.4000000e+03    3.1557060e+06    4.7255144e+06
3.4100000e+03    3.1535023e+06    4.7191362e+06
3.4200000e+03    3.1512987e+06    4.7127581e+06
3.4300000e+03    3.1490951e+06    4.7063799e+06
3.4400000e+03    3.1468914e+06    4.7000017e+06
3.4500000e+03    3.1446878e+06    4.6936236e+06
3.4600000e+03    3.1424841e+06    4.6872454e+06
3.4700000e+03    3.1402805e+06    4.6808673e+06
3.4800000e+03    3.1380768e+06    4.6744891e+06
3.4900000e+03    3.1358732e+06    4.6681110e+06
3.5000000e+03    3.1336696e+06    4.6617328e+06
3.5100000e+03    3.1314659e+06    4.6553546e+06
3.5200000e+03    3.1292623e+06    4.6489765e+06
3.5300000e+03    3.1270586e+06    4.6425983e+06
3.5400000e+03    3.1248550e+06    4.6362202e+06
3.5500000e+03    3.1226513e+06    4.6298420e+06
3.5600000e+03    3.1204477e+06    4.6234638e+06
3.5700000e+03    3.1182441e+06    4.6170857e+06
3.5800000e+03    3.1160404e+06    4.6107075e+06
3.5900000e+03    3.1138368e+06    4.6043294e+06
3.6000000e+03    3.1116331e+06    4.5979512e+06
3.6100000e+03    3.1094295e+06    4.5915730e+06
3.6200000e+03    3.1072258e+06    4.5851949e+06
3.6300000e+03    3.1050222e+06    4.5788167e+06
3.6400000e+03    3.1028186e+06    4.5724386e+06
3.6500000e+03    3.1006149e+06    4.5660604e+06
3.6600000e+03    3.0984113e+06    4.5596822e+06
3.6700000e+03    3.0962076e+06    4.5533041e+06
3.6800000e+03    3.0940040e+06    4.5469259e+06
3.6900000e+03    3.0918003e+06    4.5405478e+06
3.7000000e+03    3.0895967e+06    4.5341696e+06
3.7100000e+03    3.0873931e+06    4.5277914e+06
3.7200000e+03    3.0851894e+06    4.5214133e+06
3.7300000e+03    3.0829858e+06    4.5150351e+06
3.7400000e+03    3.0807821e+06    4.5086570e+06
3.7500000e+03    3.0785785e+06    4.5022788e+06
3.7600000e+03    3.0763748e+06    4.4959006e+06
3.7700000e+03    3.0741712e+06    4.4895225e+06
3.7800000e+03    3.0719676e+06    4.4831443e+06
3.7900000e+03    3.0697639e+06    4.4767662e+06
3.8000000e+03    3.0675603e+06    4.4703880e+06
3.8100000e+03    3.0653566e+06    4.4640098e+06
3.8200000e+03    3.0631530e+06    4.4576317e+06
3.8300000e+03    3.0609494e+06    4.4512535e+06
3.8400000e+03    3.0587457e+06    4.4448754e+06
3.8500000e+03    3.0565421e+06    4.4384972e+06
3.8600000e+03    3.0543384e+06    4.4321191e+06
3.8700000e+03    3.0521348e+06    4.4257409e+06
3.8800000e+03    3.0499311e+06    4.4193627e+06
3.8900000e+03    3.0477275e+06    4.4129846e+06
3.9000000e+03    3.0455239e+06    4.4066064e+06
3.9100000e+03    3.0433202e+06    4.4002283e+06
3.9200000e+03    3.0411166e+06    4.3938501e+06
3.9300000e+03    3.0389129e+06    4.3874719e+06
3.9400000e+03    3.0367093e+06    4.3810938e+06
3.9500000e+03    3.0345056e+06    4.3747156e+06
3.9600000e+03    3.0323020e+06    4.3683375e+06
3.9700000e+03    3.0300984e+06    4.3619593e+06
3.9800000e+03    3.0278947e+06    4.3555811e+06
3.9900000e+03    3.0256911e+06    4.3492030e+06
4.0000000e+03    3.0234874e+06    4.3428248e+06
4.0100000e+03    3.0212838e+06    4.3364467e+06
4.0200000e+03    3.0190801e+06    4.3300685e+06
4.0300000e+03    3.0168765e+06    4.3236903e+06
4.0400000e+03    3.0146729e+06    4.3173122e+06
4.0500000e+03    3.0124692e+06    4.3109340e+06
4.0600000e+03    3.0102656e+06    4.3045559e+06
4.0700000e+03    3.0080619e+06    4.2981777e+06
4.0800000e+03    3.0058583e+06    4.2917995e+06
4.0900000e+03    3.0036546e+06    4.2854214e+06
4.1000000e+03    3.0014510e+06    4.2790432e+06
4.1100000e+03    2.9992474e+06    4.2726651e+06
4.1200000e+03    2.9970437e+06    4.2662869e+06
4.1300000e+03    2.9948401e+06    4.2599087e+06
4.1400000e+03    2.9926364e+06    4.2535306e+06
