# f (GHz)        Re[Z] (Ohm/m)     Im[Z] (Ohm/m)
0.0000000e+00    2.3682902e-12    2.6909104e-11
1.0000000e-02    6.0375766e-02    6.0515313e-02
2.0000000e-02    8.5561084e-02    8.5700806e-02
3.0000000e-02    1.0505424e-01    1.0519410e-01
4.0000000e-02    1.2091052e-01    1.2105050e-01
5.0000000e-02    1.3541244e-01    1.3555254e-01
6.0000000e-02    1.4854570e-01    1.4868592e-01
7.0000000e-02    1.5975182e-01    1.5989215e-01
8.0000000e-02    1.7095793e-01    1.7109839e-01
9.0000000e-02    1.8215175e-01    1.8229233e-01
1.0000000e-01    1.9189924e-01    1.9203994e-01
1.1000000e-01    2.0050097e-01    2.0064179e-01
1.2000000e-01    2.0903598e-01    2.0917692e-01
1.3000000e-01    2.1757099e-01    2.1771205e-01
1.4000000e-01    2.2610600e-01    2.2624719e-01
1.5000000e-01    2.3464101e-01    2.3478232e-01
1.6000000e-01    2.4292302e-01    2.4306445e-01
1.7000000e-01    2.5036815e-01    2.5050971e-01
1.8000000e-01    2.5746700e-01    2.5760868e-01
1.9000000e-01    2.6430787e-01    2.6444969e-01
2.0000000e-01    2.7081411e-01    2.7095605e-01
2.1000000e-01    2.7707536e-01    2.7721742e-01
2.2000000e-01    2.8333661e-01    2.8347880e-01
2.3000000e-01    2.8959786e-01    2.8974017e-01
2.4000000e-01    2.9585911e-01    2.9600154e-01
2.5000000e-01    3.0212036e-01    3.0226291e-01
2.6000000e-01    3.0838161e-01    3.0852429e-01
2.7000000e-01    3.1464286e-01    3.1478566e-01
2.8000000e-01    3.2074526e-01    3.2088818e-01
2.9000000e-01    3.2655452e-01    3.2669757e-01
3.0000000e-01    3.3230601e-01    3.3244918e-01
3.1000000e-01    3.3803249e-01    3.3817578e-01
3.2000000e-01    3.4333719e-01    3.4348062e-01
3.3000000e-01    3.4861747e-01    3.4876102e-01
3.4000000e-01    3.5389775e-01    3.5404143e-01
3.5000000e-01    3.5894126e-01    3.5908507e-01
3.6000000e-01    3.6358041e-01    3.6372434e-01
3.7000000e-01    3.6812428e-01    3.6826832e-01
3.8000000e-01    3.7266815e-01    3.7281230e-01
3.9000000e-01    3.7721202e-01    3.7735629e-01
4.0000000e-01    3.8175590e-01    3.8190027e-01
4.1000000e-01    3.8629977e-01    3.8644426e-01
4.2000000e-01    3.9084364e-01    3.9098824e-01
4.3000000e-01    3.9538751e-01    3.9553223e-01
4.4000000e-01    3.9993138e-01    4.0007621e-01
4.5000000e-01    4.0447525e-01    4.0462019e-01
4.6000000e-01    4.0901912e-01    4.0916418e-01
4.7000000e-01    4.1356299e-01    4.1370816e-01
4.8000000e-01    4.1810686e-01    4.1825215e-01
4.9000000e-01    4.2265073e-01    4.2279613e-01
5.0000000e-01    4.2719460e-01    4.2734011e-01
5.1000000e-01    4.3173847e-01    4.3188410e-01
5.2000000e-01    4.3628234e-01    4.3642808e-01
5.3000000e-01    4.4082621e-01    4.4097207e-01
5.4000000e-01    4.4537009e-01    4.4551605e-01
5.5000000e-01    4.4991396e-01    4.5006004e-01
5.6000000e-01    4.5445783e-01    4.5460402e-01
5.7000000e-01    4.5843664e-01    4.5858295e-01
5.8000000e-01    4.6237620e-01    4.6252262e-01
5.9000000e-01    4.6631577e-01    4.6646230e-01
6.0000000e-01    4.7025533e-01    4.7040198e-01
6.1000000e-01    4.7417192e-01    4.7431868e-01
6.2000000e-01    4.7798363e-01    4.7813049e-01
6.3000000e-01    4.8165068e-01    4.8179764e-01
6.4000000e-01    4.8511495e-01    4.8526199e-01
6.5000000e-01    4.8853077e-01    4.8867789e-01
6.6000000e-01    4.9194660e-01    4.9209380e-01
6.7000000e-01    4.9536242e-01    4.9550970e-01
6.8000000e-01    4.9877824e-01    4.9892560e-01
6.9000000e-01    5.0219406e-01    5.0234150e-01
7.0000000e-01    5.0560989e-01    5.0575740e-01
7.1000000e-01    5.0902571e-01    5.0917331e-01
7.2000000e-01    5.1244153e-01    5.1258921e-01
7.3000000e-01    5.1585735e-01    5.1600511e-01
7.4000000e-01    5.1927318e-01    5.1942101e-01
7.5000000e-01    5.2268900e-01    5.2283691e-01
7.6000000e-01    5.2610482e-01    5.2625281e-01
7.7000000e-01    5.2952065e-01    5.2966872e-01
7.8000000e-01    5.3293647e-01    5.3308462e-01
7.9000000e-01    5.3635229e-01    5.3650052e-01
8.0000000e-01    5.3976811e-01    5.3991642e-01
8.1000000e-01    5.4318394e-01    5.4333232e-01
8.2000000e-01    5.4659976e-01    5.4674823e-01
8.3000000e-01    5.5001558e-01    5.5016413e-01
8.4000000e-01    5.5343140e-01    5.5358003e-01
8.5000000e-01    5.5684723e-01    5.5699593e-01
8.6000000e-01    5.6026305e-01    5.6041183e-01
8.7000000e-01    5.6367887e-01    5.6382773e-01
8.8000000e-01    5.6709470e-01    5.6724364e-01
8.9000000e-01    5.7051052e-01    5.7065954e-01
9.0000000e-01    5.7392634e-01    5.7407544e-01
9.1000000e-01    5.7734216e-01    5.7749134e-01
9.2000000e-01    5.8075799e-01    5.8090724e-01
9.3000000e-01    5.8417381e-01    5.8432315e-01
9.4000000e-01    5.8758963e-01    5.8773905e-01
9.5000000e-01    5.9100545e-01    5.9115495e-01
9.6000000e-01    5.9442128e-01    5.9457085e-01
9.7000000e-01    5.9783710e-01    5.9798675e-01
9.8000000e-01    6.0125292e-01    6.0140266e-01
9.9000000e-01    6.0466875e-01    6.0481856e-01
1.0000000e+00    6.0808457e-01    6.0823446e-01
1.0100000e+00    6.1150039e-01    6.1165036e-01
1.0200000e+00    6.1458130e-01    6.1473134e-01
1.0300000e+00    6.1754475e-01    6.1769485e-01
1.0400000e+00    6.2043934e-01    6.2058949e-01
1.0500000e+00    6.2332119e-01    6.2347139e-01
1.0600000e+00    6.2612053e-01    6.2627076e-01
1.0700000e+00    6.2884237e-01    6.2899262e-01
1.0800000e+00    6.3145836e-01    6.3160861e-01
1.0900000e+00    6.3406401e-01    6.3421427e-01
1.1000000e+00    6.3666967e-01    6.3681992e-01
1.1100000e+00    6.3927532e-01    6.3942557e-01
1.1200000e+00    6.4188098e-01    6.4203122e-01
1.1300000e+00    6.4448663e-01    6.4463688e-01
1.1400000e+00    6.4709228e-01    6.4724253e-01
1.1500000e+00    6.4969794e-01    6.4984818e-01
1.1600000e+00    6.5230359e-01    6.5245384e-01
1.1700000e+00    6.5490925e-01    6.5505949e-01
1.1800000e+00    6.5751490e-01    6.5766514e-01
1.1900000e+00    6.6012055e-01    6.6027080e-01
1.2000000e+00    6.6272621e-01    6.6287645e-01
1.2100000e+00    6.6533186e-01    6.6548210e-01
1.2200000e+00    6.6793752e-01    6.6808776e-01
1.2300000e+00    6.7054317e-01    6.7069341e-01
1.2400000e+00    6.7314882e-01    6.7329906e-01
1.2500000e+00    6.7575448e-01    6.7590471e-01
1.2600000e+00    6.7836013e-01    6.7851037e-01
1.2700000e+00    6.8096579e-01    6.8111602e-01
1.2800000e+00    6.8357144e-01    6.8372167e-01
1.2900000e+00    6.8617709e-01    6.8632733e-01
1.3000000e+00    6.8878275e-01    6.8893298e-01
1.3100000e+00    6.9138840e-01    6.9153863e-01
1.3200000e+00    6.9399406e-01    6.9414429e-01
1.3300000e+00    6.9659971e-01    6.9674994e-01
1.3400000e+00    6.9920536e-01    6.9935559e-01
1.3500000e+00    7.0181102e-01    7.0196124e-01
1.3600000e+00    7.0441667e-01    7.0456690e-01
1.3700000e+00    7.0702232e-01    7.0717255e-01
1.3800000e+00    7.0962798e-01    7.0977820e-01
1.3900000e+00    7.1223363e-01    7.1238386e-01
1.4000000e+00    7.1483929e-01    7.1498951e-01
1.4100000e+00    7.1744494e-01    7.1759516e-01
1.4200000e+00    7.2005059e-01    7.2020082e-01
1.4300000e+00    7.2265625e-01    7.2280647e-01
1.4400000e+00    7.2526190e-01    7.2541212e-01
1.4500000e+00    7.2786756e-01    7.2801777e-01
1.4600000e+00    7.3047321e-01    7.3062343e-01
1.4700000e+00    7.3307886e-01    7.3322908e-01
1.4800000e+00    7.3568452e-01    7.3583473e-01
1.4900000e+00    7.3829017e-01    7.3844039e-01
1.5000000e+00    7.4089583e-01    7.4104604e-01
1.5100000e+00    7.4350148e-01    7.4365169e-01
1.5200000e+00    7.4610713e-01    7.4625735e-01
1.5300000e+00    7.4871279e-01    7.4886300e-01
1.5400000e+00    7.5131844e-01    7.5146865e-01
1.5500000e+00    7.5392410e-01    7.5407430e-01
1.5600000e+00    7.5652975e-01    7.5667996e-01
1.5700000e+00    7.5913540e-01    7.5928561e-01
1.5800000e+00    7.6174106e-01    7.6189126e-01
1.5900000e+00    7.6434671e-01    7.6449692e-01
1.6000000e+00    7.6695237e-01    7.6710257e-01
1.6100000e+00    7.6955802e-01    7.6970822e-01
1.6200000e+00    7.7216367e-01    7.7231388e-01
1.6300000e+00    7.7476933e-01    7.7491953e-01
1.6400000e+00    7.7737498e-01    7.7752518e-01
1.6500000e+00    7.7998064e-01    7.8013083e-01
1.6600000e+00    7.8258629e-01    7.8273649e-01
1.6700000e+00    7.8519194e-01    7.8534214e-01
1.6800000e+00    7.8779760e-01    7.8794779e-01
1.6900000e+00    7.9040325e-01    7.9055345e-01
1.7000000e+00    7.9300891e-01    7.9315910e-01
1.7100000e+00    7.9561456e-01    7.9576475e-01
1.7200000e+00    7.9822021e-01    7.9837041e-01
1.7300000e+00    8.0064577e-01    8.0079594e-01
1.7400000e+00    8.0292385e-01    8.0307398e-01
1.7500000e+00    8.0518178e-01    8.0533186e-01
1.7600000e+00    8.0743352e-01    8.0758354e-01
1.7700000e+00    8.0968335e-01    8.0983333e-01
1.7800000e+00    8.1190359e-01    8.1205350e-01
1.7900000e+00    8.1411528e-01    8.1426513e-01
1.8000000e+00    8.1630014e-01    8.1644991e-01
1.8100000e+00    8.1846646e-01    8.1861615e-01
1.8200000e+00    8.2059035e-01    8.2073995e-01
1.8300000e+00    8.2270841e-01    8.2285792e-01
1.8400000e+00    8.2481979e-01    8.2496920e-01
1.8500000e+00    8.2693117e-01    8.2708048e-01
1.8600000e+00    8.2904255e-01    8.2919176e-01
1.8700000e+00    8.3115393e-01    8.3130304e-01
1.8800000e+00    8.3326531e-01    8.3341432e-01
1.8900000e+00    8.3537669e-01    8.3552560e-01
1.9000000e+00    8.3748807e-01    8.3763688e-01
1.9100000e+00    8.3959944e-01    8.3974816e-01
1.9200000e+00    8.4171082e-01    8.4185944e-01
1.9300000e+00    8.4382220e-01    8.4397072e-01
1.9400000e+00    8.4593358e-01    8.4608200e-01
1.9500000e+00    8.4804496e-01    8.4819328e-01
1.9600000e+00    8.5014947e-01    8.5029769e-01
1.9700000e+00    8.5224665e-01    8.5239476e-01
1.9800000e+00    8.5434383e-01    8.5449183e-01
1.9900000e+00    8.5644100e-01    8.5658890e-01
2.0000000e+00    8.5853309e-01    8.5868088e-01
2.0100000e+00    8.6061578e-01    8.6076346e-01
2.0200000e+00    8.6269847e-01    8.6284603e-01
2.0300000e+00    8.6476989e-01    8.6491733e-01
2.0400000e+00    8.6683790e-01    8.6698522e-01
2.0500000e+00    8.6889113e-01    8.6903833e-01
2.0600000e+00    8.7094436e-01    8.7109143e-01
2.0700000e+00    8.7299759e-01    8.7314453e-01
2.0800000e+00    8.7505082e-01    8.7519763e-01
2.0900000e+00    8.7710405e-01    8.7725073e-01
2.1000000e+00    8.7915728e-01    8.7930383e-01
2.1100000e+00    8.8121051e-01    8.8135693e-01
2.1200000e+00    8.8326374e-01    8.8341004e-01
2.1300000e+00    8.8531697e-01    8.8546314e-01
2.1400000e+00    8.8737020e-01    8.8751624e-01
2.1500000e+00    8.8942343e-01    8.8956934e-01
2.1600000e+00    8.9147666e-01    8.9162244e-01
2.1700000e+00    8.9352989e-01    8.9367554e-01
2.1800000e+00    8.9558312e-01    8.9572865e-01
2.1900000e+00    8.9761221e-01    8.9775759e-01
2.2000000e+00    8.9963747e-01    8.9978271e-01
2.2100000e+00    9.0166274e-01    9.0180783e-01
2.2200000e+00    9.0368800e-01    9.0383294e-01
2.2300000e+00    9.0570650e-01    9.0585129e-01
2.2400000e+00    9.0770323e-01    9.0784785e-01
2.2500000e+00    9.0969996e-01    9.0984442e-01
2.2600000e+00    9.1168672e-01    9.1183100e-01
2.2700000e+00    9.1365457e-01    9.1379866e-01
2.2800000e+00    9.1561175e-01    9.1575564e-01
2.2900000e+00    9.1755047e-01    9.1769416e-01
2.3000000e+00    9.1948919e-01    9.1963267e-01
2.3100000e+00    9.2142792e-01    9.2157119e-01
2.3200000e+00    9.2336664e-01    9.2350971e-01
2.3300000e+00    9.2530537e-01    9.2544822e-01
2.3400000e+00    9.2724409e-01    9.2738674e-01
2.3500000e+00    9.2918281e-01    9.2932525e-01
2.3600000e+00    9.3112154e-01    9.3126377e-01
2.3700000e+00    9.3306026e-01    9.3320229e-01
2.3800000e+00    9.3499899e-01    9.3514080e-01
2.3900000e+00    9.3693771e-01    9.3707932e-01
2.4000000e+00    9.3887643e-01    9.3901783e-01
2.4100000e+00    9.4081516e-01    9.4095635e-01
2.4200000e+00    9.4275388e-01    9.4289487e-01
2.4300000e+00    9.4469260e-01    9.4483338e-01
2.4400000e+00    9.4663133e-01    9.4677190e-01
2.4500000e+00    9.4857005e-01    9.4871041e-01
2.4600000e+00    9.5050878e-01    9.5064893e-01
2.4700000e+00    9.5244750e-01    9.5258745e-01
2.4800000e+00    9.5438622e-01    9.5452596e-01
2.4900000e+00    9.5632495e-01    9.5646448e-01
2.5000000e+00    9.5826367e-01    9.5840299e-01
2.5100000e+00    9.6020240e-01    9.6034151e-01
2.5200000e+00    9.6214112e-01    9.6228003e-01
2.5300000e+00    9.6407984e-01    9.6421854e-01
2.5400000e+00    9.6601857e-01    9.6615706e-01
2.5500000e+00    9.6795729e-01    9.6809557e-01
2.5600000e+00    9.6989601e-01    9.7003409e-01
2.5700000e+00    9.7183474e-01    9.7197261e-01
2.5800000e+00    9.7377346e-01    9.7391112e-01
2.5900000e+00    9.7571219e-01    9.7584964e-01
2.6000000e+00    9.7765091e-01    9.7778815e-01
2.6100000e+00    9.7958963e-01    9.7972667e-01
2.6200000e+00    9.8152836e-01    9.8166519e-01
2.6300000e+00    9.8346708e-01    9.8360370e-01
2.6400000e+00    9.8540581e-01    9.8554222e-01
2.6500000e+00    9.8734453e-01    9.8748073e-01
2.6600000e+00    9.8928325e-01    9.8941925e-01
2.6700000e+00    9.9122198e-01    9.9135777e-01
2.6800000e+00    9.9316070e-01    9.9329628e-01
2.6900000e+00    9.9509942e-01    9.9523480e-01
2.7000000e+00    9.9703815e-01    9.9717331e-01
2.7100000e+00    9.9897687e-01    9.9911183e-01
2.7200000e+00    1.0009156e+00    1.0010503e+00
2.7300000e+00    1.0028543e+00    1.0029889e+00
2.7400000e+00    1.0047930e+00    1.0049274e+00
2.7500000e+00    1.0067318e+00    1.0068659e+00
2.7600000e+00    1.0086705e+00    1.0088044e+00
2.7700000e+00    1.0106092e+00    1.0107429e+00
2.7800000e+00    1.0125479e+00    1.0126814e+00
2.7900000e+00    1.0144867e+00    1.0146200e+00
2.8000000e+00    1.0164254e+00    1.0165585e+00
2.8100000e+00    1.0183641e+00    1.0184970e+00
2.8200000e+00    1.0203028e+00    1.0204355e+00
2.8300000e+00    1.0222416e+00    1.0223740e+00
2.8400000e+00    1.0241803e+00    1.0243125e+00
2.8500000e+00    1.0261190e+00    1.0262511e+00
2.8600000e+00    1.0280577e+00    1.0281896e+00
2.8700000e+00    1.0299965e+00    1.0301281e+00
2.8800000e+00    1.0319352e+00    1.0320666e+00
2.8900000e+00    1.0338739e+00    1.0340051e+00
2.9000000e+00    1.0358126e+00    1.0359436e+00
2.9100000e+00    1.0377513e+00    1.0378821e+00
2.9200000e+00    1.0396901e+00    1.0398207e+00
2.9300000e+00    1.0416288e+00    1.0417592e+00
2.9400000e+00    1.0435332e+00    1.0436634e+00
2.9500000e+00    1.0453517e+00    1.0454816e+00
2.9600000e+00    1.0471683e+00    1.0472980e+00
2.9700000e+00    1.0489750e+00    1.0491044e+00
2.9800000e+00    1.0507652e+00    1.0508944e+00
2.9900000e+00    1.0525555e+00    1.0526844e+00
3.0000000e+00    1.0543457e+00    1.0544744e+00
3.0100000e+00    1.0561359e+00    1.0562644e+00
3.0200000e+00    1.0579262e+00    1.0580544e+00
3.0300000e+00    1.0597164e+00    1.0598444e+00
3.0400000e+00    1.0615066e+00    1.0616344e+00
3.0500000e+00    1.0632969e+00    1.0634244e+00
3.0600000e+00    1.0650871e+00    1.0652144e+00
3.0700000e+00    1.0668774e+00    1.0670044e+00
3.0800000e+00    1.0686676e+00    1.0687944e+00
3.0900000e+00    1.0704427e+00    1.0705692e+00
3.1000000e+00    1.0721972e+00    1.0723234e+00
3.1100000e+00    1.0739517e+00    1.0740777e+00
3.1200000e+00    1.0757063e+00    1.0758319e+00
3.1300000e+00    1.0774608e+00    1.0775862e+00
3.1400000e+00    1.0792153e+00    1.0793404e+00
3.1500000e+00    1.0809699e+00    1.0810946e+00
3.1600000e+00    1.0826948e+00    1.0828193e+00
3.1700000e+00    1.0844129e+00    1.0845371e+00
3.1800000e+00    1.0861310e+00    1.0862549e+00
3.1900000e+00    1.0878492e+00    1.0879726e+00
3.2000000e+00    1.0895423e+00    1.0896655e+00
3.2100000e+00    1.0912235e+00    1.0913463e+00
3.2200000e+00    1.0929048e+00    1.0930272e+00
3.2300000e+00    1.0945545e+00    1.0946766e+00
3.2400000e+00    1.0961986e+00    1.0963202e+00
3.2500000e+00    1.0978426e+00    1.0979638e+00
3.2600000e+00    1.0994867e+00    1.0996075e+00
3.2700000e+00    1.1011307e+00    1.1012511e+00
3.2800000e+00    1.1027748e+00    1.1028948e+00
3.2900000e+00    1.1044188e+00    1.1045384e+00
3.3000000e+00    1.1060629e+00    1.1061820e+00
3.3100000e+00    1.1077069e+00    1.1078257e+00
3.3200000e+00    1.1093290e+00    1.1094474e+00
3.3300000e+00    1.1109260e+00    1.1110439e+00
3.3400000e+00    1.1125229e+00    1.1126404e+00
3.3500000e+00    1.1141199e+00    1.1142369e+00
3.3600000e+00    1.1157168e+00    1.1158335e+00
3.3700000e+00    1.1173138e+00    1.1174300e+00
3.3800000e+00    1.1189107e+00    1.1190265e+00
3.3900000e+00    1.1205077e+00    1.1206231e+00
3.4000000e+00    1.1221046e+00    1.1222196e+00
3.4100000e+00    1.1237016e+00    1.1238161e+00
3.4200000e+00    1.1252985e+00    1.1254126e+00
3.4300000e+00    1.1268955e+00    1.1270092e+00
3.4400000e+00    1.1284924e+00    1.1286057e+00
3.4500000e+00    1.1300894e+00    1.1302022e+00
3.4600000e+00    1.1316863e+00    1.1317987e+00
3.4700000e+00    1.1332833e+00    1.1333953e+00
3.4800000e+00    1.1348802e+00    1.1349918e+00
3.4900000e+00    1.1364772e+00    1.1365883e+00
3.5000000e+00    1.1380741e+00    1.1381849e+00
3.5100000e+00    1.1396711e+00    1.1397814e+00
3.5200000e+00    1.1412681e+00    1.1413779e+00
3.5300000e+00    1.1428650e+00    1.1429744e+00
3.5400000e+00    1.1444620e+00    1.1445710e+00
3.5500000e+00    1.1460589e+00    1.1461675e+00
3.5600000e+00    1.1476559e+00    1.1477640e+00
3.5700000e+00    1.1492528e+00    1.1493605e+00
3.5800000e+00    1.1508498e+00    1.1509571e+00
3.5900000e+00    1.1524467e+00    1.1525536e+00
3.6000000e+00    1.1540437e+00    1.1541501e+00
3.6100000e+00    1.1556406e+00    1.1557466e+00
3.6200000e+00    1.1572376e+00    1.1573432e+00
3.6300000e+00    1.1588345e+00    1.1589397e+00
3.6400000e+00    1.1604315e+00    1.1605362e+00
3.6500000e+00    1.1620284e+00    1.1621328e+00
3.6600000e+00    1.1636254e+00    1.1637293e+00
3.6700000e+00    1.1652223e+00    1.1653258e+00
3.6800000e+00    1.1668193e+00    1.1669223e+00
3.6900000e+00    1.1684162e+00    1.1685189e+00
3.7000000e+00    1.1700132e+00    1.1701154e+00
3.7100000e+00    1.1715677e+00    1.1716694e+00
3.7200000e+00    1.1730720e+00    1.1731733e+00
3.7300000e+00    1.1745763e+00    1.1746771e+00
3.7400000e+00    1.1760806e+00    1.1761809e+00
3.7500000e+00    1.1775849e+00    1.1776847e+00
3.7600000e+00    1.1790892e+00    1.1791885e+00
3.7700000e+00    1.1805935e+00    1.1806923e+00
3.7800000e+00    1.1820978e+00    1.1821962e+00
3.7900000e+00    1.1836020e+00    1.1837000e+00
3.8000000e+00    1.1851063e+00    1.1852038e+00
3.8100000e+00    1.1866106e+00    1.1867076e+00
3.8200000e+00    1.1881149e+00    1.1882114e+00
3.8300000e+00    1.1896192e+00    1.1897152e+00
3.8400000e+00    1.1911235e+00    1.1912191e+00
3.8500000e+00    1.1926278e+00    1.1927229e+00
3.8600000e+00    1.1941321e+00    1.1942267e+00
3.8700000e+00    1.1956364e+00    1.1957305e+00
3.8800000e+00    1.1971407e+00    1.1972343e+00
3.8900000e+00    1.1986450e+00    1.1987381e+00
3.9000000e+00    1.2001493e+00    1.2002420e+00
3.9100000e+00    1.2016536e+00    1.2017458e+00
3.9200000e+00    1.2031579e+00    1.2032496e+00
3.9300000e+00    1.2046622e+00    1.2047534e+00
3.9400000e+00    1.2061665e+00    1.2062572e+00
3.9500000e+00    1.2076708e+00    1.2077611e+00
3.9600000e+00    1.2091751e+00    1.2092649e+00
3.9700000e+00    1.2106794e+00    1.2107687e+00
3.9800000e+00    1.2121837e+00    1.2122725e+00
3.9900000e+00    1.2136880e+00    1.2137763e+00
4.0000000e+00    1.2151923e+00    1.2152801e+00
4.0100000e+00    1.2166966e+00    1.2167840e+00
4.0200000e+00    1.2182009e+00    1.2182878e+00
4.0300000e+00    1.2197052e+00    1.2197916e+00
4.0400000e+00    1.2212095e+00    1.2212954e+00
4.0500000e+00    1.2227138e+00    1.2227992e+00
4.0600000e+00    1.2242180e+00    1.2243030e+00
4.0700000e+00    1.2257223e+00    1.2258069e+00
4.0800000e+00    1.2272266e+00    1.2273107e+00
4.0900000e+00    1.2287309e+00    1.2288145e+00
4.1000000e+00    1.2302352e+00    1.2303183e+00
4.1100000e+00    1.2317395e+00    1.2318221e+00
4.1200000e+00    1.2332438e+00    1.2333260e+00
4.1300000e+00    1.2347481e+00    1.2348298e+00
4.1400000e+00    1.2362524e+00    1.2363336e+00
