# This wake function is calculated with resonator para. from IDDEFIX fitting.
# bunch sigma is 0.4 mm.
# "s [mm]"	"Wake potential [V/pC/m]"
0.000000000000000000e+00	9.195699001236703335e-03
4.000800160032006586e-02	1.038894859549384375e-02
8.001600320064013172e-02	1.167189754788708171e-02
1.200240048009601906e-01	1.304287395928069304e-02
1.600320064012802634e-01	1.449931823043692364e-02
2.000400080016003224e-01	1.603784932146908732e-02
2.400480096019203813e-01	1.765435283977740202e-02
2.800560112022403847e-01	1.934408679523462460e-02
3.200640128025605269e-01	2.110180016955658447e-02
3.600720144028806136e-01	2.292185906608567442e-02
4.000800160032006447e-01	2.479837514716877814e-02
4.400880176035206759e-01	2.672533131426100064e-02
4.800960192038407626e-01	2.869670010368417790e-02
5.201040208041608492e-01	3.070655100366299559e-02
5.601120224044807694e-01	3.274914377912483548e-02
6.001200240048009116e-01	3.481900584793050368e-02
6.401280256051210538e-01	3.691099271525942471e-02
6.801360272054411960e-01	3.902033137852401606e-02
7.201440288057612271e-01	4.114264741179067542e-02
7.601520304060811473e-01	4.327397708910459689e-02
8.001600320064012895e-01	4.541076638892293377e-02
8.401680336067213206e-01	4.754985903090108712e-02
8.801760352070413518e-01	4.968847583896054271e-02
9.201840368073614940e-01	5.182418771912895156e-02
9.601920384076815251e-01	5.395488441292612541e-02
1.000200040008001556e+00	5.607874096711353007e-02
1.040208041608321698e+00	5.819418357951024190e-02
1.080216043208641619e+00	6.029985616774762719e-02
1.120224044808961539e+00	6.239458868907717809e-02
1.160232046409281903e+00	6.447736793549110890e-02
1.200240048009601823e+00	6.654731125476433251e-02
1.240248049609921965e+00	6.860364341434486979e-02
1.280256051210242108e+00	7.064567663605313130e-02
1.320264052810562028e+00	7.267279368582520160e-02
1.360272054410882392e+00	7.468443380153931554e-02
1.400280056011202312e+00	7.668008117838202853e-02
1.440288057611522454e+00	7.865925569903581271e-02
1.480296059211842374e+00	8.062150558855538107e-02
1.520304060812162295e+00	8.256640168465465002e-02
1.560312062412482659e+00	8.449353303737057452e-02
1.600320064012802579e+00	8.640250358271225894e-02
1.640328065613122721e+00	8.829292966893091676e-02
1.680336067213442641e+00	9.016443824845146726e-02
1.720344068813762561e+00	9.201666558119146744e-02
1.760352070414082704e+00	9.384925632463012035e-02
1.800360072014402846e+00	9.566186291189725244e-02
1.840368073614722988e+00	9.745414514109770887e-02
1.880376075215042908e+00	9.922576991718744244e-02
1.920384076815363050e+00	1.009764111022895955e-01
1.960392078415683192e+00	1.027057494418149308e-01
2.000400080016003113e+00	1.044134725426101584e-01
2.040408081616323255e+00	1.060992748860648260e-01
2.080416083216643397e+00	1.077628578640978940e-01
2.120424084816963539e+00	1.094039298295939877e-01
2.160432086417283237e+00	1.110222061554836520e-01
2.200440088017603824e+00	1.126174092985224862e-01
2.240448089617923078e+00	1.141892688651185012e-01
2.280456091218243664e+00	1.157375216774503834e-01
2.320464092818563806e+00	1.172619118387220882e-01
2.360472094418883504e+00	1.187621907968028218e-01
2.400480096019203646e+00	1.202381174057686603e-01
2.440488097619523788e+00	1.216894579850337083e-01
2.480496099219843931e+00	1.231159863758724549e-01
2.520504100820164073e+00	1.245174839952038898e-01
2.560512102420484215e+00	1.258937398865550006e-01
2.600520104020804357e+00	1.272445507681466692e-01
2.640528105621124055e+00	1.285697210780659960e-01
2.680536107221444198e+00	1.298690630164970883e-01
2.720544108821764784e+00	1.311423965849915496e-01
2.760552110422084482e+00	1.323895496227637247e-01
2.800560112022404624e+00	1.336103578399994440e-01
2.840568113622724322e+00	1.348046648481693310e-01
2.880576115223044908e+00	1.359723221873387344e-01
2.920584116823364162e+00	1.371131893504706212e-01
2.960592118423684749e+00	1.382271338047162401e-01
3.000600120024004891e+00	1.393140310096914747e-01
3.040608121624324589e+00	1.403737644327383016e-01
3.080616123224644731e+00	1.414062255611710506e-01
3.120624124824965318e+00	1.424113139115091020e-01
3.160632126425285016e+00	1.433889370357003257e-01
3.200640128025605158e+00	1.443390105243366750e-01
3.240648129625924856e+00	1.452614580068707362e-01
3.280656131226245442e+00	1.461562111488379501e-01
3.320664132826565140e+00	1.470232096460930837e-01
3.360672134426885282e+00	1.478624012160707768e-01
3.400680136027205869e+00	1.486737415860805989e-01
3.440688137627525123e+00	1.494571944786485251e-01
3.480696139227845709e+00	1.502127315939182084e-01
3.520704140828165407e+00	1.509403325891257308e-01
3.560712142428485993e+00	1.516399850551656547e-01
3.600720144028805692e+00	1.523116844902620559e-01
3.640728145629125834e+00	1.529554342707663273e-01
3.680736147229445976e+00	1.535712456190977127e-01
3.720744148829765674e+00	1.541591375688498022e-01
3.760752150430085816e+00	1.547191369270829453e-01
3.800760152030406402e+00	1.552512782338273667e-01
3.840768153630726101e+00	1.557556037188184694e-01
3.880776155231046243e+00	1.562321632554919404e-01
3.920784156831366385e+00	1.566810143122642496e-01
3.960792158431686527e+00	1.571022219011255494e-01
4.000800160032006225e+00	1.574958585235740616e-01
4.040808161632326367e+00	1.578620041139215668e-01
4.080816163232646510e+00	1.582007459800006954e-01
4.120824164832966652e+00	1.585121787413058536e-01
4.160832166433286794e+00	1.587964042646007046e-01
4.200840168033606936e+00	1.590535315970257602e-01
4.240848169633927078e+00	1.592836768967415273e-01
4.280856171234247221e+00	1.594869633611426529e-01
4.320864172834566475e+00	1.596635211526796216e-01
4.360872174434887505e+00	1.598134873223268360e-01
4.400880176035207647e+00	1.599370057307342718e-01
4.440888177635527789e+00	1.600342269671033990e-01
4.480896179235846155e+00	1.601053082658283611e-01
4.520904180836167185e+00	1.601504134209411900e-01
4.560912182436487328e+00	1.601697126984066299e-01
4.600920184036807470e+00	1.601633827463074533e-01
4.640928185637127612e+00	1.601316065029641800e-01
4.680936187237446866e+00	1.600745731030346897e-01
4.720944188837767008e+00	1.599924777816385535e-01
4.760952190438088039e+00	1.598855217765513814e-01
4.800960192038407293e+00	1.597539122285183688e-01
4.840968193638728323e+00	1.595978620797312286e-01
4.880976195239047577e+00	1.594175899705193300e-01
4.920984196839367719e+00	1.592133201343022553e-01
4.960992198439687861e+00	1.589852822908544572e-01
5.001000200040008004e+00	1.587337115379300334e-01
5.041008201640328146e+00	1.584588482412999377e-01
5.081016203240648288e+00	1.581609379232524759e-01
5.121024204840968430e+00	1.578402311496075738e-01
5.161032206441287684e+00	1.574969834152975257e-01
5.201040208041608714e+00	1.571314550285675959e-01
5.241048209641928857e+00	1.567439109938471853e-01
5.281056211242248111e+00	1.563346208933480419e-01
5.321064212842568253e+00	1.559038587674399234e-01
5.361072214442888395e+00	1.554519029938608021e-01
5.401080216043208537e+00	1.549790361658139326e-01
5.441088217643529568e+00	1.544855449690071825e-01
5.481096219243847933e+00	1.539717200576910805e-01
5.521104220844168964e+00	1.534378559297476241e-01
5.561112222444489106e+00	1.528842508008888268e-01
5.601120224044809248e+00	1.523112064780187680e-01
5.641128225645129390e+00	1.517190282318149064e-01
5.681136227245448644e+00	1.511080246685859441e-01
5.721144228845768787e+00	1.504785076014613088e-01
5.761152230446089817e+00	1.498307919209688477e-01
5.801160232046409959e+00	1.491651954650572154e-01
5.841168233646728325e+00	1.484820388886191056e-01
5.881176235247049355e+00	1.477816455325710043e-01
5.921184236847369498e+00	1.470643412925485283e-01
5.961192238447689640e+00	1.463304544872689184e-01
6.001200240048009782e+00	1.455803157266220005e-01
6.041208241648329924e+00	1.448142577795424601e-01
6.081216243248649178e+00	1.440326154417206350e-01
6.121224244848970208e+00	1.432357254032079474e-01
6.161232246449289462e+00	1.424239261159717940e-01
6.201240248049609605e+00	1.415975576614566245e-01
6.241248249649930635e+00	1.407569616182061667e-01
6.281256251250249889e+00	1.399024809296003646e-01
6.321264252850570031e+00	1.390344597717654285e-01
6.361272254450890173e+00	1.381532434217072891e-01
6.401280256051210316e+00	1.372591781257254673e-01
6.441288257651531346e+00	1.363526109681615084e-01
6.481296259251849712e+00	1.354338897405327757e-01
6.521304260852169854e+00	1.345033628111075852e-01
6.561312262452490884e+00	1.335613789949733066e-01
6.601320264052811027e+00	1.326082874246492793e-01
6.641328265653130281e+00	1.316444374212973611e-01
6.681336267253450423e+00	1.306701783665807637e-01
6.721344268853770565e+00	1.296858595752223287e-01
6.761352270454090707e+00	1.286918301683123433e-01
6.801360272054411737e+00	1.276884389474164105e-01
6.841368273654730103e+00	1.266760342695319175e-01
6.881376275255050246e+00	1.256549639229416204e-01
6.921384276855371276e+00	1.246255750040132088e-01
6.961392278455691418e+00	1.235882137949922688e-01
7.001400280056011560e+00	1.225432256428337641e-01
7.041408281656330814e+00	1.214909548391206878e-01
7.081416283256650956e+00	1.204317445011137133e-01
7.121424284856971987e+00	1.193659364539766260e-01
7.161432286457291241e+00	1.182938711142224320e-01
7.201440288057611383e+00	1.172158873744225949e-01
7.241448289657932413e+00	1.161323224892223949e-01
7.281456291258251667e+00	1.150435119627046254e-01
7.321464292858570921e+00	1.139497894371409858e-01
7.361472294458891952e+00	1.128514865831735658e-01
7.401480296059212094e+00	1.117489329914640173e-01
7.441488297659531348e+00	1.106424560658503253e-01
7.481496299259852378e+00	1.095323809180475949e-01
7.521504300860171632e+00	1.084190302639305437e-01
7.561512302460491775e+00	1.073027243214336873e-01
7.601520304060812805e+00	1.061837807101039949e-01
7.641528305661132059e+00	1.050625143523401250e-01
7.681536307261452201e+00	1.039392373763519256e-01
7.721544308861772343e+00	1.028142590208721979e-01
7.761552310462092485e+00	1.016878855416525201e-01
7.801560312062413516e+00	1.005604201197730502e-01
7.841568313662732770e+00	9.943216277179675600e-02
7.881576315263052912e+00	9.830341026179545416e-02
7.921584316863373054e+00	9.717445601527618937e-02
7.961592318463693196e+00	9.604559003503464198e-02
8.001600320064012450e+00	9.491709881896036316e-02
8.041608321664332593e+00	9.378926527981909511e-02
8.081616323264652735e+00	9.266236866703603248e-02
8.121624324864972877e+00	9.153668449050179901e-02
8.161632326465293019e+00	9.041248444642394078e-02
8.201640328065613161e+00	8.929003634524332322e-02
8.241648329665933304e+00	8.816960404163619314e-02
8.281656331266253446e+00	8.705144736661929450e-02
8.321664332866573588e+00	8.593582206177674543e-02
8.361672334466891954e+00	8.482297971562424710e-02
8.401680336067213872e+00	8.371316770212607061e-02
8.441688337667534014e+00	8.260662912138085068e-02
8.481696339267854157e+00	8.150360274248670545e-02
8.521704340868174299e+00	8.040432294860078155e-02
8.561712342468494441e+00	7.930901968420299430e-02
8.601720344068812807e+00	7.821791840457452405e-02
8.641728345669132949e+00	7.713124002750039454e-02
8.681736347269453091e+00	7.604920088720462656e-02
8.721744348869775010e+00	7.497201269052404526e-02
8.761752350470093376e+00	7.389988247532838783e-02
8.801760352070415294e+00	7.283301257119001448e-02
8.841768353670733660e+00	7.177160056230924567e-02
8.881776355271055579e+00	7.071583925269622761e-02
8.921784356871373944e+00	6.966591663361322573e-02
8.961792358471692310e+00	6.862201585327672160e-02
9.001800360072014229e+00	6.758431518882049294e-02
9.041808361672334371e+00	6.655298802051774765e-02
9.081816363272654513e+00	6.552820280826107679e-02
9.121824364872974655e+00	6.451012307029604931e-02
9.161832366473294798e+00	6.349890736420547854e-02
9.201840368073614940e+00	6.249470927013914268e-02
9.241848369673935082e+00	6.149767737628169390e-02
9.281856371274255224e+00	6.050795526655405876e-02
9.321864372874573590e+00	5.952568151053842793e-02
9.361872374474893732e+00	5.855098965561852248e-02
9.401880376075215651e+00	5.758400822132601210e-02
9.441888377675534016e+00	5.662486069588109489e-02
9.481896379275855935e+00	5.567366553491705922e-02
9.521904380876176077e+00	5.473053616237468638e-02
9.561912382476496219e+00	5.379558097355414265e-02
9.601920384076814585e+00	5.286890334030946992e-02
9.641928385677134727e+00	5.195060161837070783e-02
9.681936387277456646e+00	5.104076915677715348e-02
9.721944388877775012e+00	5.013949430940545932e-02
9.761952390478095154e+00	4.924686044857392447e-02
9.801960392078417073e+00	4.836294598070502160e-02
9.841968393678735438e+00	4.748782436402676499e-02
9.881976395279057357e+00	4.662156412829152746e-02
9.921984396879375723e+00	4.576422889649351539e-02
9.961992398479694089e+00	4.491587740856075456e-02
1.000200040008001601e+01	4.407656354700043022e-02
1.004200840168033615e+01	4.324633636447412777e-02
1.008201640328065629e+01	4.242524011327879901e-02
1.012202440488097643e+01	4.161331427670816874e-02
1.016203240648129658e+01	4.081059360227107247e-02
1.020204040808161672e+01	4.001710813673770711e-02
1.024204840968193686e+01	3.923288326299011197e-02
1.028205641128225700e+01	3.845793973864729959e-02
1.032206441288257537e+01	3.769229373643794012e-02
1.036207241448289551e+01	3.693595688629202484e-02
1.040208041608321743e+01	3.618893631912199066e-02
1.044208841768353579e+01	3.545123471226369755e-02
1.048209641928385771e+01	3.472285033654654712e-02
1.052210442088417786e+01	3.400377710496260003e-02
1.056211242248449622e+01	3.329400462290269674e-02
1.060212042408481636e+01	3.259351823992714947e-02
1.064212842568513651e+01	3.190229910304056421e-02
1.068213642728545665e+01	3.122032421143509928e-02
1.072214442888577679e+01	3.054756647267127187e-02
1.076215243048609693e+01	2.988399476026139603e-02
1.080216043208641707e+01	2.922957397262131510e-02
1.084216843368673722e+01	2.858426509335655966e-02
1.088217643528705914e+01	2.794802525284757755e-02
1.092218443688737750e+01	2.732080779109863355e-02
1.096219243848769587e+01	2.670256232181493841e-02
1.100220044008801779e+01	2.609323479767193532e-02
1.104220844168833793e+01	2.549276757674074495e-02
1.108221644328865807e+01	2.490109949003242729e-02
1.112222444488897821e+01	2.431816591012521747e-02
1.116223244648929835e+01	2.374389882083725867e-02
1.120224044808961850e+01	2.317822688790728905e-02
1.124224844968993864e+01	2.262107553064589271e-02
1.128225645129025878e+01	2.207236699452014630e-02
1.132226445289057715e+01	2.153202042463312274e-02
1.136227245449089729e+01	2.099995194006037610e-02
1.140228045609121921e+01	2.047607470900569479e-02
1.144228845769153757e+01	1.996029902473733450e-02
1.148229645929185949e+01	1.945253238226651513e-02
1.152230446089217963e+01	1.895267955573008700e-02
1.156231246249249800e+01	1.846064267643830054e-02
1.160232046409281992e+01	1.797632131154968185e-02
1.164232846569313828e+01	1.749961254333397970e-02
1.168233646729345665e+01	1.703041104898507171e-02
1.172234446889377857e+01	1.656860918094468782e-02
1.176235247049409871e+01	1.611409704769925164e-02
1.180236047209441885e+01	1.566676259501049301e-02
1.184236847369473900e+01	1.522649168754191401e-02
1.188237647529506091e+01	1.479316819084294625e-02
1.192238447689537928e+01	1.436667405365178382e-02
1.196239247849569765e+01	1.394688939047968555e-02
1.200240048009601956e+01	1.353369256443831201e-02
1.204240848169633793e+01	1.312696027027216751e-02
1.208241648329665985e+01	1.272656761755869802e-02
1.212242448489697999e+01	1.233238821403846198e-02
1.216243248649729836e+01	1.194429424903820439e-02
1.220244048809762027e+01	1.156215657694951993e-02
1.224244848969794042e+01	1.118584480072638832e-02
1.228245649129825878e+01	1.081522735536517670e-02
1.232246449289857892e+01	1.045017159133019603e-02
1.236247249449889907e+01	1.009054385788950292e-02
1.240248049609921921e+01	9.736209586324472490e-03
1.244248849769953935e+01	9.387033372978055915e-03
1.248249649929986127e+01	9.042879062106344568e-03
1.252250450090018141e+01	8.703609828498916345e-03
1.256251250250049978e+01	8.369088259832917556e-03
1.260252050410082170e+01	8.039176438727268365e-03
1.264252850570114006e+01	7.713736024463113509e-03
1.268253650730145843e+01	7.392628334336648691e-03
1.272254450890178035e+01	7.075714424612002118e-03
1.276255251050210049e+01	6.762855171041198474e-03
1.280256051210242063e+01	6.453911348919118968e-03
1.284256851370274077e+01	6.148743712641490007e-03
1.288257651530306269e+01	5.847213074735062299e-03
1.292258451690338106e+01	5.549180384328674699e-03
1.296259251850369942e+01	5.254506805034844276e-03
1.300260052010402134e+01	4.963053792212433930e-03
1.304260852170433971e+01	4.674683169580196029e-03
1.308261652330466163e+01	4.389257205152697489e-03
1.312262452490498177e+01	4.106638686470407557e-03
1.316263252650530013e+01	3.826690995095159264e-03
1.320264052810562205e+01	3.549278180344189564e-03
1.324264852970594220e+01	3.274265032236217329e-03
1.328265653130626056e+01	3.001517153621729040e-03
1.332266453290658070e+01	2.730901031473214214e-03
1.336267253450690085e+01	2.462284107309213078e-03
1.340268053610722099e+01	2.195534846727460569e-03
1.344268853770754113e+01	1.930522808023343818e-03
1.348269653930786305e+01	1.667118709869270556e-03
1.352270454090818141e+01	1.405194498033153581e-03
1.356271254250850156e+01	1.144623411111901677e-03
1.360272054410882347e+01	8.852800452596800177e-04
1.364272854570914006e+01	6.270404178883878885e-04
1.368273654730946021e+01	3.697820303201513692e-04
1.372274454890978213e+01	1.133839293719231782e-04
1.376275255051010049e+01	-1.422732321479440139e-04
1.380276055211042241e+01	-3.973071360494130643e-04
1.384276855371074255e+01	-6.518337404956554533e-04
1.388277655531106092e+01	-9.059672228803110306e-04
1.392278455691138284e+01	-1.159819923864702923e-03
1.396279255851170120e+01	-1.413502292591099644e-03
1.400280056011202312e+01	-1.667122833088007699e-03
1.404280856171234149e+01	-1.920788051882823004e-03
1.408281656331266163e+01	-2.174602406836547829e-03
1.412282456491298355e+01	-2.428668257214229662e-03
1.416283256651330191e+01	-2.683085815004856555e-03
1.420284056811362383e+01	-2.937953097503501025e-03
1.424284856971394397e+01	-3.193365881167472848e-03
1.428285657131426234e+01	-3.449417656758557455e-03
1.432286457291458248e+01	-3.706199585781912425e-03
1.436287257451490262e+01	-3.963800458231677391e-03
1.440288057611522277e+01	-4.222306651653883088e-03
1.444288857771554291e+01	-4.481802091534698232e-03
1.448289657931586483e+01	-4.742368213022971069e-03
1.452290458091618319e+01	-5.004083923995032712e-03
1.456291258251650333e+01	-5.267025569468697724e-03
1.460292058411682525e+01	-5.531266897373142769e-03
1.464292858571714184e+01	-5.796879025680835504e-03
1.468293658731746198e+01	-6.063930410906884401e-03
1.472294458891778390e+01	-6.332486817980555703e-03
1.476295259051810227e+01	-6.602611291493114785e-03
1.480296059211842419e+01	-6.874364128326006934e-03
1.484296859371874433e+01	-7.147802851662036876e-03
1.488297659531906270e+01	-7.422982186382115315e-03
1.492298459691938461e+01	-7.699954035849847570e-03
1.496299259851970476e+01	-7.978767460084348548e-03
1.500300060012002312e+01	-8.259468655323320627e-03
1.504300860172034326e+01	-8.542100934975807233e-03
1.508301660332066341e+01	-8.826704711963895278e-03
1.512302460492098355e+01	-9.113317482453602361e-03
1.516303260652130369e+01	-9.401973810972638970e-03
1.520304060812162561e+01	-9.692705316912970936e-03
1.524304860972194398e+01	-9.985540662416471716e-03
1.528305661132226412e+01	-1.028050554163962606e-02
1.532306461292258426e+01	-1.057762267139453552e-02
1.536307261452290440e+01	-1.087691178316164443e-02
1.540308061612322454e+01	-1.117838961646955634e-02
1.544308861772354469e+01	-1.148206991363747050e-02
1.548309661932386661e+01	-1.178796341587387553e-02
