# This wake function is calculated with resonator para. from IDDEFIX fitting.
# bunch sigma is 0.4 mm.
# "s [mm]"	"Wake potential [V/pC/m]"
0.000000000000000000e+00	9.587621474085183601e-03
4.000800160032006586e-02	1.083168398214316361e-02
8.001600320064013172e-02	1.216925136963947079e-02
1.200240048009601906e-01	1.359857634289150449e-02
1.600320064012802634e-01	1.511698548815965971e-02
2.000400080016003224e-01	1.672094833269601594e-02
2.400480096019203813e-01	1.840616917228786800e-02
2.800560112022403847e-01	2.016769732727896960e-02
3.200640128025605269e-01	2.200005076745523841e-02
3.600720144028806136e-01	2.389734764896022171e-02
4.000800160032006447e-01	2.585344024455686965e-02
4.400880176035206759e-01	2.786204600680482202e-02
4.800960192038407626e-01	2.991687104335646538e-02
5.201040208041608492e-01	3.201172204730988458e-02
5.601120224044807694e-01	3.414060364382722618e-02
6.001200240048009116e-01	3.629779911212533544e-02
6.401280256051210538e-01	3.847793344602463278e-02
6.801360272054411960e-01	4.067601866052301257e-02
7.201440288057612271e-01	4.288748208249175409e-02
7.601520304060811473e-01	4.510817904184586530e-02
8.001600320064012895e-01	4.733439188306608897e-02
8.401680336067213206e-01	4.956281753932152701e-02
8.801760352070413518e-01	5.179054606036968822e-02
9.201840368073614940e-01	5.401503247990492584e-02
9.601920384076815251e-01	5.623406427501718985e-02
1.000200040008001556e+00	5.844572644122818933e-02
1.040208041608321698e+00	6.064836591359047679e-02
1.080216043208641619e+00	6.284055673826614841e-02
1.120224044808961539e+00	6.502106706672519665e-02
1.160232046409281903e+00	6.718882872794984529e-02
1.200240048009601823e+00	6.934290984874132147e-02
1.240248049609921965e+00	7.148249074859858165e-02
1.280256051210242108e+00	7.360684313861295958e-02
1.320264052810562028e+00	7.571531250395889534e-02
1.360272054410882392e+00	7.780730344403061216e-02
1.400280056011202312e+00	7.988226767795657268e-02
1.440288057611522454e+00	8.193969438964805729e-02
1.480296059211842374e+00	8.397910257878075935e-02
1.520304060812162295e+00	8.600003509539573543e-02
1.560312062412482659e+00	8.800205406001790354e-02
1.600320064012802579e+00	8.998473740311306590e-02
1.640328065613122721e+00	9.194767629316338842e-02
1.680336067213442641e+00	9.389047325849540770e-02
1.720344068813762561e+00	9.581274084205709807e-02
1.760352070414082704e+00	9.771410065923141763e-02
1.800360072014402846e+00	9.959418275577386348e-02
1.840368073614722988e+00	1.014526251858355738e-01
1.880376075215042908e+00	1.032890737489012695e-01
1.920384076815363050e+00	1.051031818396582496e-01
1.960392078415683192e+00	1.068946103767761946e-01
2.000400080016003113e+00	1.086630277858114668e-01
2.040408081616323255e+00	1.104081100184400033e-01
2.080416083216643397e+00	1.121295405954265689e-01
2.120424084816963539e+00	1.138270106645396101e-01
2.160432086417283237e+00	1.155002190673582313e-01
2.200440088017603824e+00	1.171488724108560170e-01
2.240448089617923078e+00	1.187726851409965506e-01
2.280456091218243664e+00	1.203713796165069294e-01
2.320464092818563806e+00	1.219446861816213118e-01
2.360472094418883504e+00	1.234923432370125113e-01
2.400480096019203646e+00	1.250140973084019891e-01
2.440488097619523788e+00	1.265097031125221039e-01
2.480496099219843931e+00	1.279789236202211744e-01
2.520504100820164073e+00	1.294215301165737297e-01
2.560512102420484215e+00	1.308373022579074618e-01
2.600520104020804357e+00	1.322260281256861514e-01
2.640528105621124055e+00	1.335875042772069754e-01
2.680536107221444198e+00	1.349215357930818593e-01
2.720544108821764784e+00	1.362279363214801142e-01
2.760552110422084482e+00	1.375065281191152344e-01
2.800560112022404624e+00	1.387571420889603391e-01
2.840568113622724322e+00	1.399796178146809345e-01
2.880576115223044908e+00	1.411738035917760314e-01
2.920584116823364162e+00	1.423395564554178483e-01
2.960592118423684749e+00	1.434767422049856300e-01
3.000600120024004891e+00	1.445852354252866734e-01
3.040608121624324589e+00	1.456649195044628919e-01
3.080616123224644731e+00	1.467156866485792299e-01
3.120624124824965318e+00	1.477374378928944521e-01
3.160632126425285016e+00	1.487300831098141152e-01
3.200640128025605158e+00	1.496935410135279421e-01
3.240648129625924856e+00	1.506277391613358441e-01
3.280656131226245442e+00	1.515326139516659509e-01
3.320664132826565140e+00	1.524081106187920309e-01
3.360672134426885282e+00	1.532541832242576008e-01
3.400680136027205869e+00	1.540707946450142751e-01
3.440688137627525123e+00	1.548579165582873729e-01
3.480696139227845709e+00	1.556155294231772179e-01
3.520704140828165407e+00	1.563436224590115387e-01
3.560712142428485993e+00	1.570421936204611235e-01
3.600720144028805692e+00	1.577112495694369121e-01
3.640728145629125834e+00	1.583508056437822886e-01
3.680736147229445976e+00	1.589608858227812838e-01
3.720744148829765674e+00	1.595415226895010030e-01
3.760752150430085816e+00	1.600927573899893763e-01
3.800760152030406402e+00	1.606146395893502943e-01
3.840768153630726101e+00	1.611072274247190572e-01
3.880776155231046243e+00	1.615705874551635612e-01
3.920784156831366385e+00	1.620047946085358959e-01
3.960792158431686527e+00	1.624099321253025252e-01
4.000800160032006225e+00	1.627860914993807251e-01
4.040808161632326367e+00	1.631333724160107801e-01
4.080816163232646510e+00	1.634518826866942498e-01
4.120824164832966652e+00	1.637417381812314443e-01
4.160832166433286794e+00	1.640030627568891952e-01
4.200840168033606936e+00	1.642359881847350045e-01
4.240848169633927078e+00	1.644406540731707667e-01
4.280856171234247221e+00	1.646172077887045060e-01
4.320864172834566475e+00	1.647658043739959888e-01
4.360872174434887505e+00	1.648866064632154849e-01
4.400880176035207647e+00	1.649797841947554522e-01
4.440888177635527789e+00	1.650455151213348903e-01
4.480896179235846155e+00	1.650839841175388290e-01
4.520904180836167185e+00	1.650953832848355285e-01
4.560912182436487328e+00	1.650799118541141641e-01
4.600920184036807470e+00	1.650377760857891229e-01
4.640928185637127612e+00	1.649691891675144628e-01
4.680936187237446866e+00	1.648743711095569664e-01
4.720944188837767008e+00	1.647535486378735314e-01
4.760952190438088039e+00	1.646069550849419139e-01
4.800960192038407293e+00	1.644348302783942284e-01
4.840968193638728323e+00	1.642374204275013350e-01
4.880976195239047577e+00	1.640149780075615127e-01
4.920984196839367719e+00	1.637677616422425764e-01
4.960992198439687861e+00	1.634960359839303934e-01
5.001000200040008004e+00	1.632000715921375911e-01
5.041008201640328146e+00	1.628801448100252180e-01
5.081016203240648288e+00	1.625365376390914274e-01
5.121024204840968430e+00	1.621695376120836918e-01
5.161032206441287684e+00	1.617794376641887300e-01
5.201040208041608714e+00	1.613665360025571816e-01
5.241048209641928857e+00	1.609311359742200132e-01
5.281056211242248111e+00	1.604735459324532487e-01
5.321064212842568253e+00	1.599940791016506159e-01
5.361072214442888395e+00	1.594930534407603684e-01
5.401080216043208537e+00	1.589707915053480969e-01
5.441088217643529568e+00	1.584276203083415102e-01
5.481096219243847933e+00	1.578638711795208316e-01
5.521104220844168964e+00	1.572798796238117913e-01
5.561112222444489106e+00	1.566759851784439439e-01
5.601120224044809248e+00	1.560525312690350108e-01
5.641128225645129390e+00	1.554098650646612845e-01
5.681136227245448644e+00	1.547483373319778477e-01
5.721144228845768787e+00	1.540683022884484776e-01
5.761152230446089817e+00	1.533701174547491553e-01
5.801160232046409959e+00	1.526541435064057428e-01
5.841168233646728325e+00	1.519207441247307500e-01
5.881176235247049355e+00	1.511702858471187794e-01
5.921184236847369498e+00	1.504031379167674598e-01
5.961192238447689640e+00	1.496196721318820699e-01
6.001200240048009782e+00	1.488202626944326035e-01
6.041208241648329924e+00	1.480052860585205354e-01
6.081216243248649178e+00	1.471751207784227355e-01
6.121224244848970208e+00	1.463301473563738409e-01
6.161232246449289462e+00	1.454707480901504535e-01
6.201240248049609605e+00	1.445973069205201689e-01
6.241248249649930635e+00	1.437102092786188279e-01
6.281256251250249889e+00	1.428098419333180824e-01
6.321264252850570031e+00	1.418965928386467512e-01
6.361272254450890173e+00	1.409708509813285826e-01
6.401280256051210316e+00	1.400330062284975696e-01
6.441288257651531346e+00	1.390834491756549052e-01
6.481296259251849712e+00	1.381225709949276681e-01
6.521304260852169854e+00	1.371507632836921065e-01
6.561312262452490884e+00	1.361684179136225248e-01
6.601320264052811027e+00	1.351759268802264213e-01
6.641328265653130281e+00	1.341736821529272983e-01
6.681336267253450423e+00	1.331620755257545419e-01
6.721344268853770565e+00	1.321414984687017125e-01
6.761352270454090707e+00	1.311123419798103651e-01
6.801360272054411737e+00	1.300749964380418511e-01
6.841368273654730103e+00	1.290298514569922228e-01
6.881376275255050246e+00	1.279772957395106381e-01
6.921384276855371276e+00	1.269177169332776356e-01
6.961392278455691418e+00	1.258515014874015403e-01
7.001400280056011560e+00	1.247790345100876219e-01
7.041408281656330814e+00	1.237006996274375298e-01
7.081416283256650956e+00	1.226168788434340989e-01
7.121424284856971987e+00	1.215279524011643048e-01
7.161432286457291241e+00	1.204342986453372788e-01
7.201440288057611383e+00	1.193362938861481509e-01
7.241448289657932413e+00	1.182343122645418271e-01
7.281456291258251667e+00	1.171287256189274401e-01
7.321464292858570921e+00	1.160199033533957508e-01
7.361472294458891952e+00	1.149082123074887940e-01
7.401480296059212094e+00	1.137940166275724918e-01
7.441488297659531348e+00	1.126776776398592944e-01
7.481496299259852378e+00	1.115595537251307112e-01
7.521504300860171632e+00	1.104400001952061949e-01
7.561512302460491775e+00	1.093193691712030374e-01
7.601520304060812805e+00	1.081980094636355305e-01
7.641528305661132059e+00	1.070762664543957465e-01
7.681536307261452201e+00	1.059544819806596955e-01
7.721544308861772343e+00	1.048329942207627818e-01
7.761552310462092485e+00	1.037121375820846125e-01
7.801560312062413516e+00	1.025922425909850944e-01
7.841568313662732770e+00	1.014736357848313175e-01
7.881576315263052912e+00	1.003566396061530280e-01
7.921584316863373054e+00	9.924157229896615751e-02
7.961592318463693196e+00	9.812874780729964608e-02
8.001600320064012450e+00	9.701847567596198763e-02
8.041608321664332593e+00	9.591106095358230277e-02
8.081616323264652735e+00	9.480680409795877450e-02
8.121624324864972877e+00	9.370600088374765602e-02
8.161632326465293019e+00	9.260894231252420061e-02
8.201640328065613161e+00	9.151591452524590609e-02
8.241648329665933304e+00	9.042719871714670343e-02
8.281656331266253446e+00	8.934307105509113611e-02
8.321664332866573588e+00	8.826380259741513357e-02
8.361672334466891954e+00	8.718965921627881699e-02
8.401680336067213872e+00	8.612090152255727493e-02
8.441688337667534014e+00	8.505778479329141606e-02
8.481696339267854157e+00	8.400055890172263007e-02
8.521704340868174299e+00	8.294946824993167100e-02
8.561712342468494441e+00	8.190475170410226047e-02
8.601720344068812807e+00	8.086664253242843714e-02
8.641728345669132949e+00	7.983536834568315255e-02
8.681736347269453091e+00	7.881115104046479414e-02
8.721744348869775010e+00	7.779420674513680412e-02
8.761752350470093376e+00	7.678474576847535427e-02
8.801760352070415294e+00	7.578297255103691454e-02
8.841768353670733660e+00	7.478908561925860787e-02
8.881776355271055579e+00	7.380327754230088522e-02
8.921784356871373944e+00	7.282573489164333169e-02
8.961792358471692310e+00	7.185663820344015407e-02
9.001800360072014229e+00	7.089616194364348201e-02
9.041808361672334371e+00	6.994447447590008970e-02
9.081816363272654513e+00	6.900173803222577062e-02
9.121824364872974655e+00	6.806810868646089030e-02
9.161832366473294798e+00	6.714373633050974011e-02
9.201840368073614940e+00	6.622876465336378915e-02
9.241848369673935082e+00	6.532333112290961141e-02
9.281856371274255224e+00	6.442756697051930936e-02
9.321864372874573590e+00	6.354159717842138011e-02
9.361872374474893732e+00	6.266554046984783299e-02
9.401880376075215651e+00	6.179950930195302755e-02
9.441888377675534016e+00	6.094360986149783416e-02
9.481896379275855935e+00	6.009794206329157479e-02
9.521904380876176077e+00	5.926259955138423602e-02
9.561912382476496219e+00	5.843766970299817121e-02
9.601920384076814585e+00	5.762323363518934843e-02
9.641928385677134727e+00	5.681936621422582767e-02
9.681936387277456646e+00	5.602613606767063020e-02
9.721944388877775012e+00	5.524360559915513641e-02
9.761952390478095154e+00	5.447183100582675408e-02
9.801960392078417073e+00	5.371086229845584842e-02
9.841968393678735438e+00	5.296074332418341385e-02
9.881976395279057357e+00	5.222151179189112730e-02
9.921984396879375723e+00	5.149319930017492997e-02
9.961992398479694089e+00	5.077583136790037727e-02
1.000200040008001601e+01	5.006942746731832261e-02
1.004200840168033615e+01	4.937400105971919556e-02
1.008201640328065629e+01	4.868955963360031836e-02
1.012202440488097643e+01	4.801610474532271716e-02
1.016203240648129658e+01	4.735363206223139332e-02
1.020204040808161672e+01	4.670213140821208309e-02
1.024204840968193686e+01	4.606158681165643115e-02
1.028205641128225700e+01	4.543197655580767658e-02
1.032206441288257537e+01	4.481327323145668784e-02
1.036207241448289551e+01	4.420544379195744805e-02
1.040208041608321743e+01	4.360844961053086943e-02
1.044208841768353579e+01	4.302224653982553160e-02
1.048209641928385771e+01	4.244678497369909487e-02
1.052210442088417786e+01	4.188200991119045424e-02
1.056211242248449622e+01	4.132786102264371375e-02
1.060212042408481636e+01	4.078427271795102838e-02
1.064212842568513651e+01	4.025117421687577496e-02
1.068213642728545665e+01	3.972848962142015716e-02
1.072214442888577679e+01	3.921613799019797036e-02
1.076215243048609693e+01	3.871403341477408500e-02
1.080216043208641707e+01	3.822208509793125625e-02
1.084216843368673722e+01	3.774019743382283493e-02
1.088217643528705914e+01	3.726827008997209839e-02
1.092218443688737750e+01	3.680619809107434776e-02
1.096219243848769587e+01	3.635387190456101925e-02
1.100220044008801779e+01	3.591117752788222650e-02
1.104220844168833793e+01	3.547799657746359553e-02
1.108221644328865807e+01	3.505420637929398953e-02
1.112222444488897821e+01	3.463968006109863218e-02
1.116223244648929835e+01	3.423428664605256133e-02
1.120224044808961850e+01	3.383789114798867181e-02
1.124224844968993864e+01	3.345035466805323238e-02
1.128225645129025878e+01	3.307153449276298979e-02
1.132226445289057715e+01	3.270128419341524623e-02
1.136227245449089729e+01	3.233945372680441244e-02
1.140228045609121921e+01	3.198588953719568029e-02
1.144228845769153757e+01	3.164043465950785311e-02
1.148229645929185949e+01	3.130292882365575541e-02
1.152230446089217963e+01	3.097320856000338254e-02
1.156231246249249800e+01	3.065110730587754934e-02
1.160232046409281992e+01	3.033645551309234120e-02
1.164232846569313828e+01	3.002908075643394986e-02
1.168233646729345665e+01	2.972880784305504537e-02
1.172234446889377857e+01	2.943545892272800280e-02
1.176235247049409871e+01	2.914885359890621863e-02
1.180236047209441885e+01	2.886880904054148905e-02
1.184236847369473900e+01	2.859514009460666778e-02
1.188237647529506091e+01	2.832765939927163468e-02
1.192238447689537928e+01	2.806617749768091849e-02
1.196239247849569765e+01	2.781050295228100488e-02
1.200240048009601956e+01	2.756044245964560727e-02
1.204240848169633793e+01	2.731580096574639030e-02
1.208241648329665985e+01	2.707638178161785036e-02
1.212242448489697999e+01	2.684198669936337447e-02
1.216243248649729836e+01	2.661241610845109518e-02
1.220244048809762027e+01	2.638746911224683703e-02
1.224244848969794042e+01	2.616694364473299422e-02
1.228245649129825878e+01	2.595063658736030190e-02
1.232246449289857892e+01	2.573834388598151765e-02
1.236247249449889907e+01	2.552986066781475979e-02
1.240248049609921921e+01	2.532498135838514783e-02
1.244248849769953935e+01	2.512349979839292868e-02
1.248249649929986127e+01	2.492520936045716090e-02
1.252250450090018141e+01	2.472990306568373028e-02
1.256251250250049978e+01	2.453737370000660598e-02
1.260252050410082170e+01	2.434741393025188078e-02
1.264252850570114006e+01	2.415981641987432343e-02
1.268253650730145843e+01	2.397437394431593816e-02
1.272254450890178035e+01	2.379087950593730336e-02
1.276255251050210049e+01	2.360912644847147288e-02
1.280256051210242063e+01	2.342890857095195761e-02
1.284256851370274077e+01	2.325002024106576776e-02
1.288257651530306269e+01	2.307225650788287050e-02
1.292258451690338106e+01	2.289541321391440690e-02
1.296259251850369942e+01	2.271928710645191793e-02
1.300260052010402134e+01	2.254367594814057213e-02
1.304260852170433971e+01	2.236837862673939081e-02
1.308261652330466163e+01	2.219319526402259435e-02
1.312262452490498177e+01	2.201792732377627279e-02
1.316263252650530013e+01	2.184237771884508031e-02
1.320264052810562205e+01	2.166635091718420100e-02
1.324264852970594220e+01	2.148965304687278088e-02
1.328265653130626056e+01	2.131209200004497914e-02
1.332266453290658070e+01	2.113347753569558979e-02
1.336267253450690085e+01	2.095362138131834015e-02
1.340268053610722099e+01	2.077233733333420929e-02
1.344268853770754113e+01	2.058944135626967695e-02
1.348269653930786305e+01	2.040475168064353334e-02
1.352270454090818141e+01	2.021808889952280558e-02
1.356271254250850156e+01	2.002927606370868974e-02
1.360272054410882347e+01	1.983813877551377641e-02
1.364272854570914006e+01	1.964450528109281530e-02
1.368273654730946021e+01	1.944820656129039524e-02
1.372274454890978213e+01	1.924907642096839594e-02
1.376275255051010049e+01	1.904695157677852024e-02
1.380276055211042241e+01	1.884167174334436951e-02
1.384276855371074255e+01	1.863307971781947778e-02
1.388277655531106092e+01	1.842102146278768587e-02
1.392278455691138284e+01	1.820534618747363109e-02
1.396279255851170120e+01	1.798590642723161409e-02
1.400280056011202312e+01	1.776255812128166647e-02
1.404280856171234149e+01	1.753516068866342245e-02
1.408281656331266163e+01	1.730357710237777694e-02
1.412282456491298355e+01	1.706767396168879652e-02
1.416283256651330191e+01	1.682732156255770453e-02
1.420284056811362383e+01	1.658239396618269371e-02
1.424284856971394397e+01	1.633276906561859781e-02
1.428285657131426234e+01	1.607832865045173351e-02
1.432286457291458248e+01	1.581895846950549106e-02
1.436287257451490262e+01	1.555454829155440352e-02
1.440288057611522277e+01	1.528499196402332248e-02
1.444288857771554291e+01	1.501018746965141100e-02
1.448289657931586483e+01	1.473003698110020993e-02
1.452290458091618319e+01	1.444444691348608506e-02
1.456291258251650333e+01	1.415332797481898448e-02
1.460292058411682525e+01	1.385659521432940078e-02
1.464292858571714184e+01	1.355416806866748848e-02
1.468293658731746198e+01	1.324597040595785688e-02
1.472294458891778390e+01	1.293193056769605977e-02
1.476295259051810227e+01	1.261198140847239607e-02
1.480296059211842419e+01	1.228606033351012719e-02
1.484296859371874433e+01	1.195410933400661672e-02
1.488297659531906270e+01	1.161607502026623315e-02
1.492298459691938461e+01	1.127190865261442493e-02
1.496299259851970476e+01	1.092156617008504735e-02
1.500300060012002312e+01	1.056500821687175219e-02
1.504300860172034326e+01	1.020220016653686744e-02
1.508301660332066341e+01	9.833112143971683289e-03
1.512302460492098355e+01	9.457719045102312358e-03
1.516303260652130369e+01	9.076000554337493309e-03
1.520304060812162561e+01	8.687941159754974246e-03
1.524304860972194398e+01	8.293530166023521666e-03
1.528305661132226412e+01	7.892761705059789940e-03
1.532306461292258426e+01	7.485634744419523111e-03
1.536307261452290440e+01	7.072153093423292833e-03
1.540308061612322454e+01	6.652325407018527120e-03
1.544308861772354469e+01	6.226165187379919391e-03
1.548309661932386661e+01	5.793690783251880666e-03
1.552310462092418497e+01	5.354925387037227751e-03
