# z (m)        Wake (V/pC/m)
-2.000000e-03    1.853903e-08
-1.990000e-03    3.094476e-07
-1.980000e-03    1.139060e-06
-1.970000e-03    2.548060e-06
-1.960000e-03    4.566374e-06
-1.950000e-03    7.271349e-06
-1.940000e-03    1.080719e-05
-1.930000e-03    1.537195e-05
-1.920000e-03    2.122584e-05
-1.910000e-03    2.863330e-05
-1.900000e-03    3.780058e-05
-1.890000e-03    4.890158e-05
-1.880000e-03    6.202862e-05
-1.870000e-03    7.732442e-05
-1.860000e-03    9.485072e-05
-1.850000e-03    1.147275e-04
-1.840000e-03    1.372185e-04
-1.830000e-03    1.625036e-04
-1.820000e-03    1.908347e-04
-1.810000e-03    2.225176e-04
-1.800000e-03    2.576661e-04
-1.790000e-03    2.963703e-04
-1.780000e-03    3.389059e-04
-1.770000e-03    3.854409e-04
-1.760000e-03    4.361490e-04
-1.750000e-03    4.912703e-04
-1.740000e-03    5.510024e-04
-1.730000e-03    6.158492e-04
-1.720000e-03    6.861223e-04
-1.710000e-03    7.619717e-04
-1.700000e-03    8.437571e-04
-1.690000e-03    9.317784e-04
-1.680000e-03    1.026335e-03
-1.670000e-03    1.127788e-03
-1.660000e-03    1.236495e-03
-1.650000e-03    1.353177e-03
-1.640000e-03    1.478074e-03
-1.630000e-03    1.611425e-03
-1.620000e-03    1.753890e-03
-1.610000e-03    1.906128e-03
-1.600000e-03    2.068740e-03
-1.590000e-03    2.241964e-03
-1.580000e-03    2.426641e-03
-1.570000e-03    2.623430e-03
-1.560000e-03    2.832870e-03
-1.550000e-03    3.056041e-03
-1.540000e-03    3.293363e-03
-1.530000e-03    3.545855e-03
-1.520000e-03    3.814355e-03
-1.510000e-03    4.099765e-03
-1.500000e-03    4.403223e-03
-1.490000e-03    4.725208e-03
-1.480000e-03    5.067040e-03
-1.470000e-03    5.430098e-03
-1.460000e-03    5.815041e-03
-1.450000e-03    6.223848e-03
-1.440000e-03    6.656759e-03
-1.430000e-03    7.116053e-03
-1.420000e-03    7.602328e-03
-1.410000e-03    8.118584e-03
-1.400000e-03    8.664220e-03
-1.390000e-03    9.242834e-03
-1.380000e-03    9.854426e-03
-1.370000e-03    1.050139e-02
-1.360000e-03    1.118614e-02
-1.350000e-03    1.191045e-02
-1.340000e-03    1.267554e-02
-1.330000e-03    1.348620e-02
-1.320000e-03    1.434183e-02
-1.310000e-03    1.524183e-02
-1.300000e-03    1.619160e-02
-1.290000e-03    1.719533e-02
-1.280000e-03    1.825602e-02
-1.270000e-03    1.937308e-02
-1.260000e-03    2.054949e-02
-1.250000e-03    2.178946e-02
-1.240000e-03    2.309599e-02
-1.230000e-03    2.447147e-02
-1.220000e-03    2.591411e-02
-1.210000e-03    2.743230e-02
-1.200000e-03    2.903743e-02
-1.190000e-03    3.073130e-02
-1.180000e-03    3.250791e-02
-1.170000e-03    3.436787e-02
-1.160000e-03    3.631477e-02
-1.150000e-03    3.835701e-02
-1.140000e-03    4.050418e-02
-1.130000e-03    4.276347e-02
-1.120000e-03    4.513549e-02
-1.110000e-03    4.761783e-02
-1.100000e-03    5.021530e-02
-1.090000e-03    5.294948e-02
-1.080000e-03    5.581437e-02
-1.070000e-03    5.879318e-02
-1.060000e-03    6.189671e-02
-1.050000e-03    6.514054e-02
-1.040000e-03    6.852828e-02
-1.030000e-03    7.208391e-02
-1.020000e-03    7.580743e-02
-1.010000e-03    7.971082e-02
-1.000000e-03    8.379410e-02
-9.900000e-04    8.806325e-02
-9.800000e-04    9.252428e-02
-9.700000e-04    9.717118e-02
-9.600000e-04    1.019860e-01
-9.500000e-04    1.069746e-01
-9.400000e-04    1.121612e-01
-9.300000e-04    1.175816e-01
-9.200000e-04    1.232358e-01
-9.100000e-04    1.291299e-01
-9.000000e-04    1.352818e-01
-8.900000e-04    1.416855e-01
-8.800000e-04    1.483530e-01
-8.700000e-04    1.552964e-01
-8.600000e-04    1.625216e-01
-8.500000e-04    1.700346e-01
-8.400000e-04    1.778414e-01
-8.300000e-04    1.859539e-01
-8.200000e-04    1.943783e-01
-8.100000e-04    2.031265e-01
-8.000000e-04    2.122044e-01
-7.900000e-04    2.216242e-01
-7.800000e-04    2.313916e-01
-7.700000e-04    2.415129e-01
-7.600000e-04    2.519999e-01
-7.500000e-04    2.628646e-01
-7.400000e-04    2.741131e-01
-7.300000e-04    2.857574e-01
-7.200000e-04    2.978033e-01
-7.100000e-04    3.102690e-01
-7.000000e-04    3.231544e-01
-6.900000e-04    3.364715e-01
-6.800000e-04    3.502324e-01
-6.700000e-04    3.644489e-01
-6.600000e-04    3.791331e-01
-6.500000e-04    3.942910e-01
-6.400000e-04    4.099405e-01
-6.300000e-04    4.263456e-01
-6.200000e-04    4.435061e-01
-6.100000e-04    4.611883e-01
-6.000000e-04    4.793982e-01
-5.900000e-04    4.981477e-01
-5.800000e-04    5.174488e-01
-5.700000e-04    5.373195e-01
-5.600000e-04    5.577599e-01
-5.500000e-04    5.787819e-01
-5.400000e-04    6.003795e-01
-5.300000e-04    6.226246e-01
-5.200000e-04    6.454694e-01
-5.100000e-04    6.689737e-01
-5.000000e-04    6.930776e-01
-4.900000e-04    7.178411e-01
-4.800000e-04    7.433241e-01
-4.700000e-04    7.694067e-01
-4.600000e-04    7.962088e-01
-4.500000e-04    8.237305e-01
-4.400000e-04    8.521515e-01
-4.300000e-04    8.817118e-01
-4.200000e-04    9.121115e-01
-4.100000e-04    9.434106e-01
-4.000000e-04    9.750096e-01
-3.900000e-04    1.006908e+00
-3.800000e-04    1.039527e+00
-3.700000e-04    1.072924e+00
-3.600000e-04    1.107161e+00
-3.500000e-04    1.142358e+00
-3.400000e-04    1.178934e+00
-3.300000e-04    1.216768e+00
-3.200000e-04    1.255802e+00
-3.100000e-04    1.295856e+00
-3.000000e-04    1.336868e+00
-2.900000e-04    1.378720e+00
-2.800000e-04    1.421352e+00
-2.700000e-04    1.464883e+00
-2.600000e-04    1.509193e+00
-2.500000e-04    1.554343e+00
-2.400000e-04    1.600272e+00
-2.300000e-04    1.647041e+00
-2.200000e-04    1.694649e+00
-2.100000e-04    1.743097e+00
-2.000000e-04    1.792324e+00
-1.900000e-04    1.842331e+00
-1.800000e-04    1.893177e+00
-1.700000e-04    1.944803e+00
-1.600000e-04    1.997148e+00
-1.500000e-04    2.050332e+00
-1.400000e-04    2.104236e+00
-1.300000e-04    2.158920e+00
-1.200000e-04    2.214263e+00
-1.100000e-04    2.270385e+00
-1.000000e-04    2.327168e+00
-9.000000e-05    2.384609e+00
-8.000000e-05    2.442710e+00
-7.000000e-05    2.501471e+00
-6.000000e-05    2.560832e+00
-5.000000e-05    2.620792e+00
-4.000000e-05    2.681291e+00
-3.000000e-05    2.742331e+00
-2.000000e-05    2.803850e+00
-1.000000e-05    2.865908e+00
0.000000e+00    2.928326e+00
1.000000e-05    2.991225e+00
2.000000e-05    3.054482e+00
3.000000e-05    3.118040e+00
4.000000e-05    3.181897e+00
5.000000e-05    3.246055e+00
6.000000e-05    3.310452e+00
7.000000e-05    3.374909e+00
8.000000e-05    3.439126e+00
9.000000e-05    3.502983e+00
1.000000e-04    3.566361e+00
1.100000e-04    3.629379e+00
1.200000e-04    3.692277e+00
1.300000e-04    3.755115e+00
1.400000e-04    3.817833e+00
1.500000e-04    3.880371e+00
1.600000e-04    3.942730e+00
1.700000e-04    4.004848e+00
1.800000e-04    4.066667e+00
1.900000e-04    4.128126e+00
2.000000e-04    4.189225e+00
2.100000e-04    4.249905e+00
2.200000e-04    4.310105e+00
2.300000e-04    4.369765e+00
2.400000e-04    4.428825e+00
2.500000e-04    4.487346e+00
2.600000e-04    4.545148e+00
2.700000e-04    4.602290e+00
2.800000e-04    4.658652e+00
2.900000e-04    4.714235e+00
3.000000e-04    4.769039e+00
3.100000e-04    4.822883e+00
3.200000e-04    4.875887e+00
3.300000e-04    4.927933e+00
3.400000e-04    4.979018e+00
3.500000e-04    5.029085e+00
3.600000e-04    5.078072e+00
3.700000e-04    5.125561e+00
3.800000e-04    5.171310e+00
3.900000e-04    5.215561e+00
4.000000e-04    5.258432e+00
4.100000e-04    5.299984e+00
4.200000e-04    5.340217e+00
4.300000e-04    5.379191e+00
4.400000e-04    5.416906e+00
4.500000e-04    5.453362e+00
4.600000e-04    5.488559e+00
4.700000e-04    5.522496e+00
4.800000e-04    5.555594e+00
4.900000e-04    5.587852e+00
5.000000e-04    5.618852e+00
5.100000e-04    5.648472e+00
5.200000e-04    5.676773e+00
5.300000e-04    5.703755e+00
5.400000e-04    5.729418e+00
5.500000e-04    5.753762e+00
5.600000e-04    5.776846e+00
5.700000e-04    5.798672e+00
5.800000e-04    5.819238e+00
5.900000e-04    5.838545e+00
6.000000e-04    5.856653e+00
6.100000e-04    5.873562e+00
6.200000e-04    5.889271e+00
6.300000e-04    5.903722e+00
6.400000e-04    5.917093e+00
6.500000e-04    5.929205e+00
6.600000e-04    5.940117e+00
6.700000e-04    5.950011e+00
6.800000e-04    5.958825e+00
6.900000e-04    5.966680e+00
7.000000e-04    5.973515e+00
7.100000e-04    5.979331e+00
7.200000e-04    5.984188e+00
7.300000e-04    5.988145e+00
7.400000e-04    5.991263e+00
7.500000e-04    5.993542e+00
7.600000e-04    5.995041e+00
7.700000e-04    5.995880e+00
7.800000e-04    5.996000e+00
7.900000e-04    5.995400e+00
8.000000e-04    5.994141e+00
8.100000e-04    5.992223e+00
8.200000e-04    5.989764e+00
8.300000e-04    5.986706e+00
8.400000e-04    5.983169e+00
8.500000e-04    5.979031e+00
8.600000e-04    5.974534e+00
8.700000e-04    5.969558e+00
8.800000e-04    5.964221e+00
8.900000e-04    5.958465e+00
9.000000e-04    5.952349e+00
9.100000e-04    5.945993e+00
9.200000e-04    5.939278e+00
9.300000e-04    5.932322e+00
9.400000e-04    5.925127e+00
9.500000e-04    5.917692e+00
9.600000e-04    5.910077e+00
9.700000e-04    5.902283e+00
9.800000e-04    5.894308e+00
9.900000e-04    5.886273e+00
1.000000e-03    5.878059e+00
1.010000e-03    5.869784e+00
1.020000e-03    5.861450e+00
1.030000e-03    5.852995e+00
1.040000e-03    5.844541e+00
1.050000e-03    5.836027e+00
1.060000e-03    5.827512e+00
1.070000e-03    5.818938e+00
1.080000e-03    5.810424e+00
1.090000e-03    5.801909e+00
1.100000e-03    5.793395e+00
1.110000e-03    5.784881e+00
1.120000e-03    5.776426e+00
1.130000e-03    5.768032e+00
1.140000e-03    5.759638e+00
1.150000e-03    5.751363e+00
1.160000e-03    5.743089e+00
1.170000e-03    5.734874e+00
1.180000e-03    5.726720e+00
1.190000e-03    5.718685e+00
1.200000e-03    5.710650e+00
1.210000e-03    5.702676e+00
1.220000e-03    5.694821e+00
1.230000e-03    5.687026e+00
1.240000e-03    5.679231e+00
1.250000e-03    5.671556e+00
1.260000e-03    5.663942e+00
1.270000e-03    5.656387e+00
1.280000e-03    5.648892e+00
1.290000e-03    5.641457e+00
1.300000e-03    5.634081e+00
1.310000e-03    5.626766e+00
1.320000e-03    5.619511e+00
1.330000e-03    5.612316e+00
1.340000e-03    5.605121e+00
1.350000e-03    5.598045e+00
1.360000e-03    5.590970e+00
1.370000e-03    5.583955e+00
1.380000e-03    5.576940e+00
1.390000e-03    5.570044e+00
1.400000e-03    5.563089e+00
1.410000e-03    5.556253e+00
1.420000e-03    5.549418e+00
1.430000e-03    5.542582e+00
1.440000e-03    5.535807e+00
1.450000e-03    5.529091e+00
1.460000e-03    5.522316e+00
1.470000e-03    5.515600e+00
1.480000e-03    5.508945e+00
1.490000e-03    5.502289e+00
1.500000e-03    5.495634e+00
1.510000e-03    5.488978e+00
1.520000e-03    5.482383e+00
1.530000e-03    5.475787e+00
1.540000e-03    5.469191e+00
1.550000e-03    5.462656e+00
1.560000e-03    5.456060e+00
1.570000e-03    5.449525e+00
1.580000e-03    5.442989e+00
1.590000e-03    5.436453e+00
1.600000e-03    5.429978e+00
1.610000e-03    5.423442e+00
1.620000e-03    5.416966e+00
1.630000e-03    5.410491e+00
1.640000e-03    5.404015e+00
1.650000e-03    5.397539e+00
1.660000e-03    5.391124e+00
1.670000e-03    5.384708e+00
1.680000e-03    5.378232e+00
1.690000e-03    5.371816e+00
1.700000e-03    5.365461e+00
1.710000e-03    5.359045e+00
1.720000e-03    5.352629e+00
1.730000e-03    5.346273e+00
1.740000e-03    5.339918e+00
1.750000e-03    5.333562e+00
1.760000e-03    5.327206e+00
1.770000e-03    5.320910e+00
1.780000e-03    5.314555e+00
1.790000e-03    5.308259e+00
1.800000e-03    5.301963e+00
1.810000e-03    5.295727e+00
1.820000e-03    5.289431e+00
1.830000e-03    5.283196e+00
1.840000e-03    5.276900e+00
1.850000e-03    5.270664e+00
1.860000e-03    5.264488e+00
1.870000e-03    5.258252e+00
1.880000e-03    5.252076e+00
1.890000e-03    5.245840e+00
1.900000e-03    5.239665e+00
1.910000e-03    5.233549e+00
1.920000e-03    5.227373e+00
1.930000e-03    5.221197e+00
1.940000e-03    5.215081e+00
1.950000e-03    5.208965e+00
1.960000e-03    5.202849e+00
1.970000e-03    5.196733e+00
1.980000e-03    5.190677e+00
1.990000e-03    5.184561e+00
2.000000e-03    5.178505e+00
2.010000e-03    5.172449e+00
2.020000e-03    5.166393e+00
2.030000e-03    5.160337e+00
2.040000e-03    5.154282e+00
2.050000e-03    5.148226e+00
2.060000e-03    5.142230e+00
2.070000e-03    5.136234e+00
2.080000e-03    5.130178e+00
2.090000e-03    5.124182e+00
2.100000e-03    5.118186e+00
2.110000e-03    5.112190e+00
2.120000e-03    5.106194e+00
2.130000e-03    5.100258e+00
2.140000e-03    5.094262e+00
2.150000e-03    5.088266e+00
2.160000e-03    5.082330e+00
2.170000e-03    5.076393e+00
2.180000e-03    5.070397e+00
2.190000e-03    5.064461e+00
2.200000e-03    5.058525e+00
2.210000e-03    5.052589e+00
2.220000e-03    5.046653e+00
2.230000e-03    5.040717e+00
2.240000e-03    5.034781e+00
2.250000e-03    5.028845e+00
2.260000e-03    5.022909e+00
2.270000e-03    5.016973e+00
2.280000e-03    5.011097e+00
2.290000e-03    5.005161e+00
2.300000e-03    4.999225e+00
2.310000e-03    4.993349e+00
2.320000e-03    4.987413e+00
2.330000e-03    4.981537e+00
2.340000e-03    4.975601e+00
2.350000e-03    4.969725e+00
2.360000e-03    4.963789e+00
2.370000e-03    4.957913e+00
2.380000e-03    4.952036e+00
2.390000e-03    4.946100e+00
2.400000e-03    4.940224e+00
2.410000e-03    4.934348e+00
2.420000e-03    4.928472e+00
2.430000e-03    4.922596e+00
2.440000e-03    4.916660e+00
2.450000e-03    4.910784e+00
2.460000e-03    4.904908e+00
2.470000e-03    4.899032e+00
2.480000e-03    4.893156e+00
2.490000e-03    4.887280e+00
2.500000e-03    4.881404e+00
2.510000e-03    4.875587e+00
2.520000e-03    4.869711e+00
2.530000e-03    4.863835e+00
2.540000e-03    4.857959e+00
2.550000e-03    4.852083e+00
2.560000e-03    4.846267e+00
2.570000e-03    4.840391e+00
2.580000e-03    4.834575e+00
2.590000e-03    4.828699e+00
2.600000e-03    4.822883e+00
2.610000e-03    4.817007e+00
2.620000e-03    4.811190e+00
2.630000e-03    4.805314e+00
2.640000e-03    4.799498e+00
2.650000e-03    4.793682e+00
2.660000e-03    4.787866e+00
2.670000e-03    4.781990e+00
2.680000e-03    4.776174e+00
2.690000e-03    4.770358e+00
2.700000e-03    4.764542e+00
2.710000e-03    4.758785e+00
2.720000e-03    4.752969e+00
2.730000e-03    4.747153e+00
2.740000e-03    4.741397e+00
2.750000e-03    4.735581e+00
2.760000e-03    4.729825e+00
2.770000e-03    4.724009e+00
2.780000e-03    4.718252e+00
2.790000e-03    4.712496e+00
2.800000e-03    4.706740e+00
2.810000e-03    4.700984e+00
2.820000e-03    4.695228e+00
2.830000e-03    4.689472e+00
2.840000e-03    4.683715e+00
2.850000e-03    4.677959e+00
2.860000e-03    4.672263e+00
2.870000e-03    4.666567e+00
2.880000e-03    4.660811e+00
2.890000e-03    4.655115e+00
2.900000e-03    4.649418e+00
2.910000e-03    4.643722e+00
2.920000e-03    4.638026e+00
2.930000e-03    4.632390e+00
2.940000e-03    4.626693e+00
2.950000e-03    4.621057e+00
2.960000e-03    4.615361e+00
2.970000e-03    4.609725e+00
2.980000e-03    4.604089e+00
2.990000e-03    4.598452e+00
3.000000e-03    4.592876e+00
3.010000e-03    4.587240e+00
3.020000e-03    4.581664e+00
3.030000e-03    4.576027e+00
3.040000e-03    4.570451e+00
3.050000e-03    4.564875e+00
3.060000e-03    4.559298e+00
3.070000e-03    4.553782e+00
3.080000e-03    4.548206e+00
3.090000e-03    4.542690e+00
3.100000e-03    4.537113e+00
3.110000e-03    4.531597e+00
3.120000e-03    4.526081e+00
3.130000e-03    4.520624e+00
3.140000e-03    4.515108e+00
3.150000e-03    4.509592e+00
3.160000e-03    4.504135e+00
3.170000e-03    4.498679e+00
3.180000e-03    4.493223e+00
3.190000e-03    4.487766e+00
3.200000e-03    4.482310e+00
3.210000e-03    4.476913e+00
3.220000e-03    4.471517e+00
3.230000e-03    4.466061e+00
3.240000e-03    4.460664e+00
3.250000e-03    4.455268e+00
3.260000e-03    4.449931e+00
3.270000e-03    4.444535e+00
3.280000e-03    4.439199e+00
3.290000e-03    4.433802e+00
3.300000e-03    4.428466e+00
3.310000e-03    4.423129e+00
3.320000e-03    4.417853e+00
3.330000e-03    4.412516e+00
3.340000e-03    4.407180e+00
3.350000e-03    4.401903e+00
3.360000e-03    4.396627e+00
3.370000e-03    4.391350e+00
3.380000e-03    4.386074e+00
3.390000e-03    4.380798e+00
3.400000e-03    4.375581e+00
3.410000e-03    4.370305e+00
3.420000e-03    4.365088e+00
3.430000e-03    4.359812e+00
3.440000e-03    4.354595e+00
3.450000e-03    4.349378e+00
3.460000e-03    4.344222e+00
3.470000e-03    4.339005e+00
3.480000e-03    4.333789e+00
3.490000e-03    4.328632e+00
3.500000e-03    4.323416e+00
3.510000e-03    4.318259e+00
3.520000e-03    4.313103e+00
3.530000e-03    4.307946e+00
3.540000e-03    4.302790e+00
3.550000e-03    4.297633e+00
3.560000e-03    4.292536e+00
3.570000e-03    4.287380e+00
3.580000e-03    4.282283e+00
3.590000e-03    4.277127e+00
3.600000e-03    4.272030e+00
3.610000e-03    4.266933e+00
3.620000e-03    4.261837e+00
3.630000e-03    4.256740e+00
3.640000e-03    4.251644e+00
3.650000e-03    4.246547e+00
3.660000e-03    4.241450e+00
3.670000e-03    4.236414e+00
3.680000e-03    4.231317e+00
3.690000e-03    4.226221e+00
3.700000e-03    4.221184e+00
3.710000e-03    4.216147e+00
3.720000e-03    4.211051e+00
3.730000e-03    4.206014e+00
3.740000e-03    4.200977e+00
3.750000e-03    4.195941e+00
3.760000e-03    4.190904e+00
3.770000e-03    4.185868e+00
3.780000e-03    4.180831e+00
3.790000e-03    4.175794e+00
3.800000e-03    4.170758e+00
3.810000e-03    4.165721e+00
3.820000e-03    4.160684e+00
3.830000e-03    4.155708e+00
3.840000e-03    4.150671e+00
3.850000e-03    4.145694e+00
3.860000e-03    4.140658e+00
3.870000e-03    4.135681e+00
3.880000e-03    4.130644e+00
3.890000e-03    4.125668e+00
3.900000e-03    4.120631e+00
3.910000e-03    4.115654e+00
3.920000e-03    4.110678e+00
3.930000e-03    4.105641e+00
3.940000e-03    4.100664e+00
3.950000e-03    4.095688e+00
3.960000e-03    4.090711e+00
3.970000e-03    4.085734e+00
3.980000e-03    4.080758e+00
3.990000e-03    4.075781e+00
4.000000e-03    4.070804e+00
4.010000e-03    4.065828e+00
4.020000e-03    4.060851e+00
4.030000e-03    4.055874e+00
4.040000e-03    4.050898e+00
4.050000e-03    4.045921e+00
4.060000e-03    4.040944e+00
4.070000e-03    4.035968e+00
4.080000e-03    4.031051e+00
4.090000e-03    4.026074e+00
4.100000e-03    4.021097e+00
4.110000e-03    4.016181e+00
4.120000e-03    4.011204e+00
4.130000e-03    4.006227e+00
4.140000e-03    4.001311e+00
4.150000e-03    3.996334e+00
4.160000e-03    3.991417e+00
4.170000e-03    3.986501e+00
4.180000e-03    3.981524e+00
4.190000e-03    3.976607e+00
4.200000e-03    3.971690e+00
4.210000e-03    3.966714e+00
4.220000e-03    3.961797e+00
4.230000e-03    3.956880e+00
4.240000e-03    3.951964e+00
4.250000e-03    3.947047e+00
4.260000e-03    3.942130e+00
4.270000e-03    3.937213e+00
4.280000e-03    3.932297e+00
4.290000e-03    3.927380e+00
4.300000e-03    3.922523e+00
4.310000e-03    3.917607e+00
4.320000e-03    3.912690e+00
4.330000e-03    3.907833e+00
4.340000e-03    3.902916e+00
4.350000e-03    3.898060e+00
4.360000e-03    3.893143e+00
4.370000e-03    3.888286e+00
4.380000e-03    3.883429e+00
4.390000e-03    3.878513e+00
4.400000e-03    3.873656e+00
4.410000e-03    3.868799e+00
4.420000e-03    3.863942e+00
4.430000e-03    3.859086e+00
4.440000e-03    3.854229e+00
4.450000e-03    3.849432e+00
4.460000e-03    3.844575e+00
4.470000e-03    3.839778e+00
4.480000e-03    3.834922e+00
4.490000e-03    3.830125e+00
4.500000e-03    3.825268e+00
4.510000e-03    3.820471e+00
4.520000e-03    3.815675e+00
4.530000e-03    3.810878e+00
4.540000e-03    3.806081e+00
4.550000e-03    3.801284e+00
4.560000e-03    3.796547e+00
4.570000e-03    3.791750e+00
4.580000e-03    3.786954e+00
